# OpenSignals Text File Format. Version 1
# {"98:D3:91:FD:58:3A": {"position": 0, "device": "bitalino_rev", "device name": "98:D3:91:FD:58:3A", "device connection": "/dev/tty.BITalino-58-3A-DevB", "sampling rate": 1000, "resolution": [4, 1, 1, 1, 1, 10, 10, 10, 10, 6, 6], "firmware version": 1281, "comments": "", "keywords": "", "mode": 0, "sync interval": 2, "date": "2020-8-11", "time": "15:28:21.377", "channels": [1, 2, 3, 4, 5, 6], "sensor": ["RAW", "RAW", "RAW", "RAW", "RAW", "RAW"], "label": ["A1", "A2", "A3", "A4", "A5", "A6"], "column": ["nSeq", "I1", "I2", "O1", "O2", "A1", "A2", "A3", "A4", "A5", "A6"], "special": [{}, {}, {}, {}, {}, {}], "digital IO": [0, 0, 1, 1]}}
# EndOfHeader
0	0	0	0	0	511	508	0	675	38	8	
1	0	0	0	0	503	508	0	624	38	8	
2	0	0	0	0	507	509	0	561	38	8	
3	0	0	0	0	512	509	0	489	38	8	
4	0	0	0	0	504	509	0	422	38	8	
5	0	0	0	0	514	509	0	383	38	7	
6	0	0	0	0	504	509	0	368	38	7	
7	0	0	0	0	510	510	0	376	38	6	
8	0	0	0	0	514	510	0	404	38	6	
9	0	0	0	0	511	510	0	415	38	7	
10	0	0	0	0	512	510	0	420	38	8	
11	0	0	0	0	510	510	0	430	38	8	
12	0	0	0	0	511	511	0	464	38	8	
13	0	0	0	0	507	511	0	516	38	8	
14	0	0	0	0	510	511	0	576	38	8	
15	0	0	0	0	517	510	0	621	38	7	
0	0	0	0	0	515	511	0	675	38	7	
1	0	0	0	0	510	510	0	725	38	6	
2	0	0	0	0	508	511	0	750	38	6	
3	0	0	0	0	504	510	0	749	38	7	
4	0	0	0	0	504	510	0	721	38	8	
5	0	0	0	0	503	509	0	659	38	8	
6	0	0	0	0	511	509	0	589	38	8	
7	0	0	0	0	505	509	0	517	38	8	
8	0	0	0	0	513	509	0	446	38	8	
9	0	0	0	0	517	509	0	391	38	7	
10	0	0	0	0	506	510	0	352	38	7	
11	0	0	0	0	507	510	0	351	38	6	
12	0	0	0	0	515	509	0	364	38	6	
13	0	0	0	0	511	510	0	369	38	7	
14	0	0	0	0	512	511	0	388	38	8	
15	0	0	0	0	511	510	0	385	38	8	
0	0	0	0	0	505	510	0	358	38	8	
1	0	0	0	0	516	510	0	351	38	8	
2	0	0	0	0	511	510	0	403	38	8	
3	0	0	0	0	512	510	0	501	38	7	
4	0	0	0	0	513	509	0	601	38	7	
5	0	0	0	0	515	510	0	679	38	6	
6	0	0	0	0	506	510	0	736	38	6	
7	0	0	0	0	507	510	0	753	38	7	
8	0	0	0	0	508	510	0	718	38	8	
9	0	0	0	0	504	510	0	639	38	8	
10	0	0	0	0	504	509	0	529	38	8	
11	0	0	0	0	507	510	0	414	38	8	
12	0	0	0	0	516	510	0	319	38	8	
13	0	0	0	0	513	509	0	257	38	7	
14	0	0	0	0	508	509	0	200	38	7	
15	0	0	0	0	515	508	0	153	38	6	
0	0	0	0	0	505	509	0	133	38	6	
1	0	0	0	0	506	509	0	152	38	7	
2	0	0	0	0	504	508	0	182	38	8	
3	0	0	0	0	508	509	0	225	38	8	
4	0	0	0	0	519	509	0	304	38	8	
5	0	0	0	0	510	510	0	368	38	8	
6	0	0	0	0	505	510	0	405	38	8	
7	0	0	0	0	515	510	0	408	38	7	
8	0	0	0	0	509	510	0	376	38	7	
9	0	0	0	0	505	510	0	365	38	6	
10	0	0	0	0	511	510	0	373	38	6	
11	0	0	0	0	509	510	0	377	38	7	
12	0	0	0	0	507	509	0	372	38	8	
13	0	0	0	0	499	510	0	353	38	8	
14	0	0	0	0	503	510	0	295	38	8	
15	0	0	0	0	502	511	0	183	38	9	
0	0	0	0	0	515	510	0	73	38	8	
1	0	0	0	0	510	510	0	5	38	7	
2	0	0	0	0	512	510	0	0	38	7	
3	0	0	0	0	514	510	0	0	38	6	
4	0	0	0	0	508	509	0	0	38	6	
5	0	0	0	0	510	510	0	0	38	7	
6	0	0	0	0	514	510	0	76	38	8	
7	0	0	0	0	504	510	0	103	38	8	
8	0	0	0	0	508	510	0	139	38	8	
9	0	0	0	0	508	509	0	191	38	8	
10	0	0	0	0	515	510	0	240	38	8	
11	0	0	0	0	511	510	0	335	38	7	
12	0	0	0	0	512	510	0	449	38	7	
13	0	0	0	0	510	510	0	545	38	6	
14	0	0	0	0	504	510	0	609	38	6	
15	0	0	0	0	511	510	0	628	38	7	
0	0	0	0	0	508	509	0	607	38	8	
1	0	0	0	0	500	510	0	527	37	8	
2	0	0	0	0	513	510	0	424	38	8	
3	0	0	0	0	506	510	0	316	38	8	
4	0	0	0	0	506	510	0	224	38	8	
5	0	0	0	0	509	509	0	102	38	7	
6	0	0	0	0	511	509	0	0	38	7	
7	0	0	0	0	506	508	0	0	38	6	
8	0	0	0	0	511	508	0	0	38	6	
9	0	0	0	0	513	508	0	0	37	7	
10	0	0	0	0	513	508	0	0	38	8	
11	0	0	0	0	509	509	0	0	38	8	
12	0	0	0	0	508	510	0	125	38	8	
13	0	0	0	0	508	510	0	207	38	8	
14	0	0	0	0	515	510	0	287	38	8	
15	0	0	0	0	510	509	0	362	38	7	
0	0	0	0	0	511	510	0	411	38	7	
1	0	0	0	0	503	510	0	443	38	6	
2	0	0	0	0	510	510	0	465	38	6	
3	0	0	0	0	505	510	0	467	38	7	
4	0	0	0	0	501	510	0	444	38	8	
5	0	0	0	0	507	511	0	380	38	8	
6	0	0	0	0	510	512	0	300	38	8	
7	0	0	0	0	510	512	0	202	38	8	
8	0	0	0	0	510	511	0	108	38	8	
9	0	0	0	0	514	511	0	35	38	7	
10	0	0	0	0	507	511	0	0	38	7	
11	0	0	0	0	510	509	0	0	38	6	
12	0	0	0	0	508	509	0	0	38	6	
13	0	0	0	0	511	509	0	0	38	7	
14	0	0	0	0	512	509	0	0	38	8	
15	0	0	0	0	507	508	0	0	38	8	
0	0	0	0	0	508	508	0	75	38	8	
1	0	0	0	0	514	508	0	147	38	9	
2	0	0	0	0	512	508	0	207	38	8	
3	0	0	0	0	507	508	0	280	38	7	
4	0	0	0	0	506	508	0	359	38	7	
5	0	0	0	0	512	509	0	433	38	6	
6	0	0	0	0	515	509	0	476	38	6	
7	0	0	0	0	507	509	0	483	38	7	
8	0	0	0	0	505	509	0	459	38	8	
9	0	0	0	0	502	509	0	401	38	8	
10	0	0	0	0	506	509	0	301	38	8	
11	0	0	0	0	505	509	0	186	38	8	
12	0	0	0	0	504	508	0	65	38	8	
13	0	0	0	0	513	508	0	0	38	7	
14	0	0	0	0	515	509	0	0	38	7	
15	0	0	0	0	508	509	0	0	38	6	
0	0	0	0	0	514	508	0	0	38	6	
1	0	0	0	0	513	508	0	0	38	7	
2	0	0	0	0	509	508	0	0	38	8	
3	0	0	0	0	506	508	0	0	38	8	
4	0	0	0	0	507	508	0	0	38	8	
5	0	0	0	0	510	509	0	69	38	9	
6	0	0	0	0	509	509	0	127	38	8	
7	0	0	0	0	510	509	0	205	38	7	
8	0	0	0	0	515	509	0	284	38	7	
9	0	0	0	0	505	509	0	361	38	6	
10	0	0	0	0	503	508	0	412	38	6	
11	0	0	0	0	506	508	0	435	38	7	
12	0	0	0	0	505	508	0	427	38	8	
13	0	0	0	0	498	509	0	375	38	8	
14	0	0	0	0	504	508	0	292	38	8	
15	0	0	0	0	509	508	0	198	38	9	
0	0	0	0	0	513	508	0	94	38	8	
1	0	0	0	0	517	508	0	8	38	7	
2	0	0	0	0	515	508	0	0	38	7	
3	0	0	0	0	504	508	0	0	38	6	
4	0	0	0	0	513	508	0	0	38	6	
5	0	0	0	0	506	508	0	0	38	7	
6	0	0	0	0	508	508	0	0	38	8	
7	0	0	0	0	513	508	0	0	38	8	
8	0	0	0	0	503	507	0	0	38	8	
9	0	0	0	0	513	507	0	0	38	9	
10	0	0	0	0	511	507	0	99	38	8	
11	0	0	0	0	514	507	0	169	38	7	
12	0	0	0	0	512	506	0	238	38	7	
13	0	0	0	0	509	506	0	307	38	6	
14	0	0	0	0	504	506	0	360	38	6	
15	0	0	0	0	508	507	0	386	38	7	
0	0	0	0	0	502	508	0	364	38	8	
1	0	0	0	0	509	508	0	319	38	8	
2	0	0	0	0	501	508	0	263	38	8	
3	0	0	0	0	511	509	0	192	38	8	
4	0	0	0	0	511	509	0	123	38	8	
5	0	0	0	0	512	509	0	66	38	7	
6	0	0	0	0	507	510	0	21	38	7	
7	0	0	0	0	512	510	0	1	38	6	
8	0	0	0	0	508	510	0	5	38	6	
9	0	0	0	0	515	511	0	33	38	7	
10	0	0	0	0	511	510	0	74	38	8	
11	0	0	0	0	515	510	0	121	38	8	
12	0	0	0	0	507	510	0	170	38	8	
13	0	0	0	0	512	510	0	217	38	9	
14	0	0	0	0	514	510	0	274	38	8	
15	0	0	0	0	511	509	0	347	38	7	
0	0	0	0	0	517	508	0	432	38	7	
1	0	0	0	0	504	507	0	509	38	6	
2	0	0	0	0	499	507	0	562	38	6	
3	0	0	0	0	506	507	0	596	38	7	
4	0	0	0	0	505	507	0	609	38	8	
5	0	0	0	0	500	508	0	593	38	8	
6	0	0	0	0	503	507	0	548	38	8	
7	0	0	0	0	511	507	0	477	38	8	
8	0	0	0	0	509	508	0	393	38	8	
9	0	0	0	0	517	507	0	315	38	7	
10	0	0	0	0	512	508	0	284	38	7	
11	0	0	0	0	513	508	0	264	38	6	
12	0	0	0	0	518	508	0	288	38	6	
13	0	0	0	0	509	508	0	321	38	7	
14	0	0	0	0	512	507	0	361	38	8	
15	0	0	0	0	514	507	0	418	38	8	
0	0	0	0	0	514	507	0	492	38	8	
1	0	0	0	0	508	507	0	555	38	8	
2	0	0	0	0	511	507	0	604	38	8	
3	0	0	0	0	508	507	0	643	38	7	
4	0	0	0	0	513	508	0	671	38	7	
5	0	0	0	0	512	508	0	702	38	6	
6	0	0	0	0	507	508	0	736	38	6	
7	0	0	0	0	502	509	0	765	38	7	
8	0	0	0	0	505	509	0	728	38	8	
9	0	0	0	0	509	508	0	628	38	8	
10	0	0	0	0	508	509	0	514	38	8	
11	0	0	0	0	508	510	0	405	38	8	
12	0	0	0	0	512	510	0	300	38	8	
13	0	0	0	0	514	510	0	210	38	7	
14	0	0	0	0	507	510	0	137	38	7	
15	0	0	0	0	506	510	0	94	38	6	
0	0	0	0	0	512	510	0	83	38	6	
1	0	0	0	0	512	510	0	92	38	7	
2	0	0	0	0	515	509	0	124	38	8	
3	0	0	0	0	508	510	0	189	38	8	
4	0	0	0	0	511	508	0	267	38	8	
5	0	0	0	0	508	508	0	358	38	8	
6	0	0	0	0	506	508	0	452	38	8	
7	0	0	0	0	514	508	0	543	38	7	
8	0	0	0	0	509	508	0	623	38	7	
9	0	0	0	0	510	507	0	683	38	6	
10	0	0	0	0	508	508	0	707	38	6	
11	0	0	0	0	501	508	0	690	38	7	
12	0	0	0	0	500	507	0	645	38	8	
13	0	0	0	0	508	508	0	574	38	8	
14	0	0	0	0	505	508	0	479	38	8	
15	0	0	0	0	514	509	0	383	38	8	
0	0	0	0	0	515	509	0	290	38	8	
1	0	0	0	0	509	509	0	207	38	7	
2	0	0	0	0	511	510	0	136	38	7	
3	0	0	0	0	508	509	0	99	38	6	
4	0	0	0	0	507	509	0	110	38	6	
5	0	0	0	0	511	510	0	158	38	7	
6	0	0	0	0	512	509	0	224	38	8	
7	0	0	0	0	509	509	0	290	38	8	
8	0	0	0	0	508	508	0	360	38	8	
9	0	0	0	0	507	509	0	425	38	8	
10	0	0	0	0	511	508	0	484	38	8	
11	0	0	0	0	516	507	0	556	38	7	
12	0	0	0	0	517	508	0	647	38	7	
13	0	0	0	0	503	507	0	712	38	6	
14	0	0	0	0	515	507	0	742	38	6	
15	0	0	0	0	510	506	0	728	38	7	
0	0	0	0	0	505	506	0	671	38	7	
1	0	0	0	0	503	507	0	591	38	8	
2	0	0	0	0	500	507	0	496	38	8	
3	0	0	0	0	509	508	0	376	38	8	
4	0	0	0	0	517	508	0	263	38	8	
5	0	0	0	0	510	508	0	172	38	7	
6	0	0	0	0	504	508	0	107	38	7	
7	0	0	0	0	511	509	0	79	38	6	
8	0	0	0	0	511	509	0	91	38	6	
9	0	0	0	0	506	509	0	133	38	7	
10	0	0	0	0	509	508	0	207	38	7	
11	0	0	0	0	510	508	0	281	38	8	
12	0	0	0	0	511	507	0	359	38	8	
13	0	0	0	0	505	506	0	416	38	8	
14	0	0	0	0	515	507	0	467	38	8	
15	0	0	0	0	515	506	0	513	38	7	
0	0	0	0	0	510	507	0	536	38	7	
1	0	0	0	0	504	507	0	553	38	6	
2	0	0	0	0	505	506	0	573	38	6	
3	0	0	0	0	508	507	0	581	38	7	
4	0	0	0	0	506	506	0	583	38	7	
5	0	0	0	0	513	507	0	561	38	8	
6	0	0	0	0	508	507	0	505	38	8	
7	0	0	0	0	510	507	0	426	38	9	
8	0	0	0	0	516	507	0	339	38	8	
9	0	0	0	0	508	507	0	265	38	7	
10	0	0	0	0	507	508	0	203	38	7	
11	0	0	0	0	509	507	0	161	38	6	
12	0	0	0	0	510	508	0	134	38	6	
13	0	0	0	0	515	508	0	140	38	7	
14	0	0	0	0	511	508	0	181	38	7	
15	0	0	0	0	510	508	0	233	38	8	
0	0	0	0	0	505	508	0	284	38	8	
1	0	0	0	0	516	508	0	320	38	8	
2	0	0	0	0	512	508	0	342	38	8	
3	0	0	0	0	512	507	0	385	38	7	
4	0	0	0	0	510	507	0	469	38	7	
5	0	0	0	0	502	507	0	569	38	6	
6	0	0	0	0	512	508	0	676	38	6	
7	0	0	0	0	508	508	0	759	38	7	
8	0	0	0	0	503	507	0	792	38	7	
9	0	0	0	0	508	507	0	768	38	8	
10	0	0	0	0	507	508	0	706	38	8	
11	0	0	0	0	508	508	0	626	38	8	
12	0	0	0	0	515	509	0	555	38	8	
13	0	0	0	0	514	509	0	532	38	7	
14	0	0	0	0	513	510	0	532	38	7	
15	0	0	0	0	517	509	0	512	38	6	
0	0	0	0	0	513	510	0	503	38	6	
1	0	0	0	0	509	509	0	506	38	7	
2	0	0	0	0	508	508	0	519	38	7	
3	0	0	0	0	510	508	0	542	38	8	
4	0	0	0	0	511	508	0	589	38	8	
5	0	0	0	0	514	508	0	646	38	9	
6	0	0	0	0	514	508	0	697	38	8	
7	0	0	0	0	512	508	0	765	38	7	
8	0	0	0	0	501	508	0	830	38	7	
9	0	0	0	0	505	508	0	871	38	6	
10	0	0	0	0	507	507	0	899	38	6	
11	0	0	0	0	505	507	0	924	38	7	
12	0	0	0	0	504	507	0	946	38	7	
13	0	0	0	0	508	508	0	941	38	8	
14	0	0	0	0	510	508	0	906	38	8	
15	0	0	0	0	504	508	0	830	38	8	
0	0	0	0	0	510	510	0	736	38	8	
1	0	0	0	0	514	510	0	665	38	7	
2	0	0	0	0	514	510	0	605	38	7	
3	0	0	0	0	516	510	0	564	38	6	
4	0	0	0	0	516	510	0	556	38	6	
5	0	0	0	0	503	510	0	565	38	7	
6	0	0	0	0	504	510	0	573	38	8	
7	0	0	0	0	508	510	0	582	38	8	
8	0	0	0	0	508	510	0	586	38	8	
9	0	0	0	0	511	510	0	588	38	9	
10	0	0	0	0	514	509	0	603	38	8	
11	0	0	0	0	517	509	0	639	38	7	
12	0	0	0	0	515	509	0	685	38	7	
13	0	0	0	0	501	509	0	712	38	6	
14	0	0	0	0	511	509	0	708	38	6	
15	0	0	0	0	512	509	0	691	38	7	
0	0	0	0	0	500	508	0	673	38	8	
1	0	0	0	0	500	509	0	646	38	8	
2	0	0	0	0	507	508	0	609	38	8	
3	0	0	0	0	505	509	0	550	38	9	
4	0	0	0	0	512	508	0	494	38	8	
5	0	0	0	0	518	508	0	467	38	7	
6	0	0	0	0	507	509	0	455	38	7	
7	0	0	0	0	507	509	0	451	38	6	
8	0	0	0	0	512	509	0	460	38	6	
9	0	0	0	0	513	509	0	468	38	7	
10	0	0	0	0	508	509	0	488	38	8	
11	0	0	0	0	512	508	0	530	38	8	
12	0	0	0	0	509	508	0	601	38	8	
13	0	0	0	0	508	508	0	682	38	9	
14	0	0	0	0	512	508	0	761	38	8	
15	0	0	0	0	509	508	0	826	38	7	
0	0	0	0	0	503	507	0	883	38	7	
1	0	0	0	0	511	507	0	921	38	6	
2	0	0	0	0	503	507	0	929	38	6	
3	0	0	0	0	506	507	0	910	38	7	
4	0	0	0	0	508	507	0	867	38	8	
5	0	0	0	0	502	507	0	803	39	8	
6	0	0	0	0	507	507	0	705	38	8	
7	0	0	0	0	512	508	0	576	38	9	
8	0	0	0	0	515	508	0	458	38	8	
9	0	0	0	0	515	509	0	389	38	7	
10	0	0	0	0	510	510	0	352	38	7	
11	0	0	0	0	512	510	0	351	38	6	
12	0	0	0	0	513	509	0	356	38	6	
13	0	0	0	0	513	508	0	382	39	7	
14	0	0	0	0	509	508	0	400	38	8	
15	0	0	0	0	512	509	0	412	38	8	
0	0	0	0	0	508	510	0	439	38	8	
1	0	0	0	0	507	510	0	480	38	9	
2	0	0	0	0	516	510	0	524	38	8	
3	0	0	0	0	504	510	0	572	38	7	
4	0	0	0	0	509	510	0	622	38	7	
5	0	0	0	0	502	510	0	681	38	6	
6	0	0	0	0	507	508	0	741	38	6	
7	0	0	0	0	510	508	0	773	38	7	
8	0	0	0	0	510	508	0	777	38	8	
9	0	0	0	0	504	508	0	739	38	8	
10	0	0	0	0	513	507	0	676	38	8	
11	0	0	0	0	506	508	0	588	38	9	
12	0	0	0	0	517	508	0	508	38	8	
13	0	0	0	0	510	508	0	473	38	7	
14	0	0	0	0	512	508	0	452	38	7	
15	0	0	0	0	511	509	0	420	38	6	
0	0	0	0	0	509	510	0	408	38	6	
1	0	0	0	0	510	510	0	397	38	7	
2	0	0	0	0	504	510	0	395	38	8	
3	0	0	0	0	516	511	0	420	38	8	
4	0	0	0	0	513	511	0	443	38	8	
5	0	0	0	0	513	511	0	439	38	9	
6	0	0	0	0	516	510	0	428	38	8	
7	0	0	0	0	515	510	0	404	38	7	
8	0	0	0	0	510	510	0	385	38	7	
9	0	0	0	0	504	509	0	375	38	6	
10	0	0	0	0	503	509	0	359	38	6	
11	0	0	0	0	509	509	0	333	38	7	
12	0	0	0	0	501	509	0	315	38	8	
13	0	0	0	0	506	509	0	291	38	8	
14	0	0	0	0	505	508	0	269	38	8	
15	0	0	0	0	515	508	0	247	38	9	
0	0	0	0	0	512	509	0	210	38	8	
1	0	0	0	0	512	508	0	215	38	7	
2	0	0	0	0	509	509	0	251	38	7	
3	0	0	0	0	508	508	0	292	38	6	
4	0	0	0	0	508	508	0	346	38	6	
5	0	0	0	0	508	508	0	401	38	7	
6	0	0	0	0	507	508	0	443	38	7	
7	0	0	0	0	504	508	0	475	38	8	
8	0	0	0	0	515	508	0	508	38	8	
9	0	0	0	0	514	508	0	550	38	8	
10	0	0	0	0	512	507	0	595	38	8	
11	0	0	0	0	520	507	0	641	38	7	
12	0	0	0	0	518	507	0	689	38	7	
13	0	0	0	0	509	507	0	723	39	6	
14	0	0	0	0	503	507	0	728	38	6	
15	0	0	0	0	499	507	0	711	38	7	
0	0	0	0	0	507	507	0	668	38	7	
1	0	0	0	0	509	507	0	595	38	8	
2	0	0	0	0	508	508	0	475	38	8	
3	0	0	0	0	508	508	0	332	38	8	
4	0	0	0	0	509	508	0	192	38	8	
5	0	0	0	0	515	507	0	83	38	7	
6	0	0	0	0	509	507	0	9	38	7	
7	0	0	0	0	514	507	0	0	38	6	
8	0	0	0	0	509	507	0	0	38	6	
9	0	0	0	0	511	507	0	0	38	7	
10	0	0	0	0	510	506	0	0	38	7	
11	0	0	0	0	508	507	0	96	38	8	
12	0	0	0	0	508	507	0	159	38	8	
13	0	0	0	0	508	508	0	210	38	8	
14	0	0	0	0	518	509	0	253	38	8	
15	0	0	0	0	511	509	0	305	38	7	
0	0	0	0	0	510	510	0	387	38	7	
1	0	0	0	0	504	509	0	478	38	6	
2	0	0	0	0	507	510	0	556	38	6	
3	0	0	0	0	508	510	0	618	38	7	
4	0	0	0	0	509	510	0	649	38	7	
5	0	0	0	0	510	511	0	643	38	8	
6	0	0	0	0	506	510	0	600	38	8	
7	0	0	0	0	508	511	0	523	38	8	
8	0	0	0	0	510	510	0	446	38	8	
9	0	0	0	0	506	510	0	400	38	7	
10	0	0	0	0	508	510	0	383	38	7	
11	0	0	0	0	515	510	0	375	38	6	
12	0	0	0	0	511	510	0	381	38	6	
13	0	0	0	0	514	510	0	390	38	7	
14	0	0	0	0	505	510	0	402	38	7	
15	0	0	0	0	511	510	0	408	38	8	
0	0	0	0	0	511	510	0	423	38	8	
1	0	0	0	0	510	510	0	453	38	8	
2	0	0	0	0	516	510	0	503	38	8	
3	0	0	0	0	511	509	0	574	38	7	
4	0	0	0	0	510	509	0	638	38	7	
5	0	0	0	0	508	509	0	675	38	6	
6	0	0	0	0	503	508	0	675	38	6	
7	0	0	0	0	515	507	0	626	38	7	
8	0	0	0	0	506	507	0	534	38	7	
9	0	0	0	0	498	507	0	420	38	8	
10	0	0	0	0	505	507	0	301	38	8	
11	0	0	0	0	511	508	0	190	38	8	
12	0	0	0	0	515	508	0	94	38	8	
13	0	0	0	0	513	509	0	28	38	7	
14	0	0	0	0	500	509	0	0	38	7	
15	0	0	0	0	512	509	0	0	38	6	
0	0	0	0	0	516	509	0	0	38	6	
1	0	0	0	0	510	509	0	54	38	7	
2	0	0	0	0	504	509	0	112	38	7	
3	0	0	0	0	510	510	0	177	38	8	
4	0	0	0	0	511	509	0	242	38	8	
5	0	0	0	0	513	510	0	307	38	8	
6	0	0	0	0	508	509	0	363	38	8	
7	0	0	0	0	515	509	0	416	38	7	
8	0	0	0	0	505	509	0	507	38	7	
9	0	0	0	0	505	509	0	609	38	6	
10	0	0	0	0	497	509	0	682	38	6	
11	0	0	0	0	509	509	0	716	38	7	
12	0	0	0	0	502	510	0	709	38	7	
13	0	0	0	0	506	510	0	658	38	8	
14	0	0	0	0	503	510	0	567	38	8	
15	0	0	0	0	506	510	0	455	38	8	
0	0	0	0	0	508	510	0	344	38	8	
1	0	0	0	0	512	510	0	243	38	7	
2	0	0	0	0	518	510	0	163	38	7	
3	0	0	0	0	507	509	0	118	38	6	
4	0	0	0	0	509	508	0	106	38	6	
5	0	0	0	0	510	508	0	120	38	7	
6	0	0	0	0	513	507	0	146	38	7	
7	0	0	0	0	518	507	0	188	38	8	
8	0	0	0	0	515	507	0	241	38	8	
9	0	0	0	0	512	507	0	291	38	8	
10	0	0	0	0	510	508	0	369	38	8	
11	0	0	0	0	516	508	0	472	38	7	
12	0	0	0	0	506	509	0	590	38	7	
13	0	0	0	0	509	508	0	697	38	6	
14	0	0	0	0	501	509	0	768	38	6	
15	0	0	0	0	508	509	0	788	38	7	
0	0	0	0	0	510	509	0	777	38	7	
1	0	0	0	0	504	510	0	734	38	8	
2	0	0	0	0	502	510	0	679	38	8	
3	0	0	0	0	509	510	0	593	38	8	
4	0	0	0	0	510	511	0	500	38	8	
5	0	0	0	0	512	510	0	428	38	7	
6	0	0	0	0	513	510	0	364	38	7	
7	0	0	0	0	509	510	0	309	38	6	
8	0	0	0	0	509	510	0	256	38	6	
9	0	0	0	0	515	510	0	219	38	7	
10	0	0	0	0	514	509	0	222	38	7	
11	0	0	0	0	508	510	0	262	38	8	
12	0	0	0	0	511	509	0	313	38	8	
13	0	0	0	0	507	509	0	374	38	8	
14	0	0	0	0	515	509	0	422	38	8	
15	0	0	0	0	508	508	0	453	38	7	
0	0	0	0	0	512	509	0	486	38	7	
1	0	0	0	0	503	509	0	531	38	6	
2	0	0	0	0	512	509	0	570	38	6	
3	0	0	0	0	510	508	0	593	38	7	
4	0	0	0	0	509	508	0	598	38	7	
5	0	0	0	0	504	508	0	578	38	8	
6	0	0	0	0	499	509	0	537	38	8	
7	0	0	0	0	511	508	0	473	38	8	
8	0	0	0	0	509	509	0	398	38	8	
9	0	0	0	0	524	510	0	307	38	7	
10	0	0	0	0	507	510	0	233	38	7	
11	0	0	0	0	507	510	0	213	38	6	
12	0	0	0	0	510	510	0	216	38	6	
13	0	0	0	0	510	510	0	231	38	7	
14	0	0	0	0	513	510	0	293	38	7	
15	0	0	0	0	508	510	0	366	38	8	
0	0	0	0	0	514	510	0	419	38	8	
1	0	0	0	0	514	511	0	460	38	8	
2	0	0	0	0	512	510	0	521	38	8	
3	0	0	0	0	504	509	0	596	38	7	
4	0	0	0	0	513	509	0	651	38	7	
5	0	0	0	0	508	509	0	701	38	6	
6	0	0	0	0	501	509	0	746	38	6	
7	0	0	0	0	510	511	0	766	38	7	
8	0	0	0	0	507	510	0	762	38	7	
9	0	0	0	0	510	511	0	730	38	8	
10	0	0	0	0	498	510	0	640	38	8	
11	0	0	0	0	513	510	0	509	38	8	
12	0	0	0	0	502	510	0	370	38	8	
13	0	0	0	0	513	510	0	274	38	7	
14	0	0	0	0	513	511	0	215	38	7	
15	0	0	0	0	509	512	0	151	38	6	
0	0	0	0	0	517	512	0	118	38	6	
1	0	0	0	0	513	512	0	103	38	7	
2	0	0	0	0	511	512	0	111	38	7	
3	0	0	0	0	500	512	0	146	38	8	
4	0	0	0	0	508	512	0	206	38	8	
5	0	0	0	0	510	512	0	286	38	8	
6	0	0	0	0	512	513	0	379	38	8	
7	0	0	0	0	514	512	0	466	38	7	
8	0	0	0	0	517	512	0	558	38	7	
9	0	0	0	0	502	511	0	652	38	6	
10	0	0	0	0	507	511	0	737	38	6	
11	0	0	0	0	509	511	0	792	38	7	
12	0	0	0	0	506	510	0	802	38	7	
13	0	0	0	0	502	510	0	757	38	8	
14	0	0	0	0	508	510	0	670	38	8	
15	0	0	0	0	502	510	0	556	38	8	
0	0	0	0	0	504	511	0	446	38	8	
1	0	0	0	0	513	510	0	359	38	7	
2	0	0	0	0	506	511	0	302	38	7	
3	0	0	0	0	513	511	0	281	38	6	
4	0	0	0	0	515	511	0	280	38	6	
5	0	0	0	0	513	512	0	300	38	7	
6	0	0	0	0	517	512	0	334	38	7	
7	0	0	0	0	511	512	0	365	38	8	
8	0	0	0	0	508	512	0	390	38	8	
9	0	0	0	0	512	512	0	406	38	8	
10	0	0	0	0	508	512	0	457	38	8	
11	0	0	0	0	512	511	0	555	38	7	
12	0	0	0	0	508	512	0	660	38	7	
13	0	0	0	0	508	512	0	747	38	6	
14	0	0	0	0	510	511	0	815	38	6	
15	0	0	0	0	502	511	0	841	38	7	
0	0	0	0	0	499	510	0	824	38	7	
1	0	0	0	0	508	511	0	765	38	8	
2	0	0	0	0	507	511	0	691	38	8	
3	0	0	0	0	508	511	0	605	38	8	
4	0	0	0	0	510	510	0	524	38	8	
5	0	0	0	0	512	511	0	461	38	7	
6	0	0	0	0	511	511	0	408	38	7	
7	0	0	0	0	512	510	0	367	38	6	
8	0	0	0	0	515	510	0	343	38	6	
9	0	0	0	0	507	510	0	348	38	7	
10	0	0	0	0	514	510	0	378	38	7	
11	0	0	0	0	511	510	0	448	38	8	
12	0	0	0	0	507	510	0	539	38	8	
13	0	0	0	0	503	510	0	639	38	8	
14	0	0	0	0	519	509	0	741	38	8	
15	0	0	0	0	515	509	0	836	38	7	
0	0	0	0	0	508	509	0	924	38	7	
1	0	0	0	0	505	510	0	977	38	6	
2	0	0	0	0	503	510	0	999	38	6	
3	0	0	0	0	508	510	0	1004	38	7	
4	0	0	0	0	505	510	0	985	38	7	
5	0	0	0	0	505	511	0	931	39	8	
6	0	0	0	0	510	510	0	846	38	8	
7	0	0	0	0	506	510	0	738	38	8	
8	0	0	0	0	511	511	0	639	38	8	
9	0	0	0	0	516	511	0	565	38	7	
10	0	0	0	0	509	511	0	504	38	7	
11	0	0	0	0	513	510	0	462	38	6	
12	0	0	0	0	506	510	0	460	38	6	
13	0	0	0	0	513	510	0	472	39	7	
14	0	0	0	0	503	510	0	490	38	7	
15	0	0	0	0	515	511	0	543	39	8	
0	0	0	0	0	513	510	0	606	38	8	
1	0	0	0	0	510	510	0	667	38	8	
2	0	0	0	0	504	510	0	736	38	8	
3	0	0	0	0	513	510	0	811	38	7	
4	0	0	0	0	515	511	0	881	38	7	
5	0	0	0	0	512	510	0	918	39	6	
6	0	0	0	0	500	511	0	939	38	6	
7	0	0	0	0	506	511	0	950	38	7	
8	0	0	0	0	512	511	0	942	38	7	
9	0	0	0	0	506	512	0	880	38	8	
10	0	0	0	0	506	511	0	778	38	8	
11	0	0	0	0	508	511	0	668	38	8	
12	0	0	0	0	508	511	0	584	38	8	
13	0	0	0	0	514	511	0	536	39	7	
14	0	0	0	0	512	511	0	503	38	7	
15	0	0	0	0	511	510	0	479	38	6	
0	0	0	0	0	511	510	0	466	38	6	
1	0	0	0	0	512	511	0	463	38	7	
2	0	0	0	0	507	510	0	471	38	7	
3	0	0	0	0	508	510	0	492	38	8	
4	0	0	0	0	513	510	0	518	38	8	
5	0	0	0	0	510	510	0	515	39	8	
6	0	0	0	0	515	510	0	540	38	8	
7	0	0	0	0	520	510	0	599	38	7	
8	0	0	0	0	513	510	0	670	38	7	
9	0	0	0	0	505	509	0	731	38	6	
10	0	0	0	0	511	509	0	781	38	6	
11	0	0	0	0	513	509	0	789	38	7	
12	0	0	0	0	499	508	0	805	38	7	
13	0	0	0	0	499	508	0	788	38	8	
14	0	0	0	0	507	508	0	729	38	8	
15	0	0	0	0	511	508	0	639	38	8	
0	0	0	0	0	511	510	0	543	38	8	
1	0	0	0	0	510	510	0	465	38	7	
2	0	0	0	0	507	511	0	407	38	7	
3	0	0	0	0	505	512	0	362	38	6	
4	0	0	0	0	512	512	0	332	38	6	
5	0	0	0	0	506	512	0	282	38	7	
6	0	0	0	0	510	512	0	266	38	7	
7	0	0	0	0	510	512	0	272	38	8	
8	0	0	0	0	508	512	0	280	38	8	
9	0	0	0	0	511	512	0	303	38	8	
10	0	0	0	0	515	511	0	359	38	8	
11	0	0	0	0	518	510	0	424	38	7	
12	0	0	0	0	513	509	0	512	38	7	
13	0	0	0	0	500	509	0	613	38	6	
14	0	0	0	0	503	510	0	694	38	6	
15	0	0	0	0	506	510	0	740	38	7	
0	0	0	0	0	501	509	0	755	38	7	
1	0	0	0	0	495	509	0	721	38	8	
2	0	0	0	0	506	510	0	651	38	8	
3	0	0	0	0	512	510	0	566	38	8	
4	0	0	0	0	517	510	0	471	38	8	
5	0	0	0	0	516	511	0	403	38	7	
6	0	0	0	0	508	510	0	365	38	7	
7	0	0	0	0	508	511	0	346	38	6	
8	0	0	0	0	510	511	0	349	38	6	
9	0	0	0	0	508	511	0	364	38	7	
10	0	0	0	0	514	511	0	387	38	7	
11	0	0	0	0	509	510	0	419	38	8	
12	0	0	0	0	502	510	0	460	38	8	
13	0	0	0	0	511	510	0	496	38	8	
14	0	0	0	0	516	511	0	537	38	8	
15	0	0	0	0	519	510	0	592	38	7	
0	0	0	0	0	515	510	0	659	38	7	
1	0	0	0	0	504	510	0	736	38	6	
2	0	0	0	0	508	510	0	799	38	6	
3	0	0	0	0	512	511	0	837	38	7	
4	0	0	0	0	504	510	0	845	38	7	
5	0	0	0	0	504	510	0	804	38	8	
6	0	0	0	0	502	510	0	741	38	8	
7	0	0	0	0	510	510	0	651	38	8	
8	0	0	0	0	510	510	0	558	38	8	
9	0	0	0	0	511	509	0	473	38	7	
10	0	0	0	0	513	510	0	394	38	7	
11	0	0	0	0	510	510	0	327	38	6	
12	0	0	0	0	515	511	0	290	38	6	
13	0	0	0	0	510	511	0	280	38	7	
14	0	0	0	0	508	511	0	290	38	7	
15	0	0	0	0	509	512	0	328	38	8	
0	0	0	0	0	504	512	0	376	38	8	
1	0	0	0	0	508	512	0	419	38	8	
2	0	0	0	0	511	513	0	455	38	8	
3	0	0	0	0	521	512	0	491	38	7	
4	0	0	0	0	516	513	0	536	38	7	
5	0	0	0	0	501	512	0	606	38	6	
6	0	0	0	0	508	512	0	655	38	6	
7	0	0	0	0	503	512	0	678	38	7	
8	0	0	0	0	499	511	0	677	38	7	
9	0	0	0	0	507	512	0	635	38	8	
10	0	0	0	0	504	512	0	557	38	8	
11	0	0	0	0	507	512	0	443	38	8	
12	0	0	0	0	511	512	0	307	38	8	
13	0	0	0	0	517	513	0	195	38	7	
14	0	0	0	0	508	512	0	106	38	7	
15	0	0	0	0	513	512	0	25	38	6	
0	0	0	0	0	508	513	0	0	38	6	
1	0	0	0	0	515	512	0	0	38	7	
2	0	0	0	0	519	512	0	0	38	7	
3	0	0	0	0	510	513	0	0	38	8	
4	0	0	0	0	511	513	0	89	38	8	
5	0	0	0	0	512	513	0	156	38	8	
6	0	0	0	0	508	512	0	240	38	8	
7	0	0	0	0	515	512	0	345	38	7	
8	0	0	0	0	508	511	0	447	38	7	
9	0	0	0	0	504	511	0	535	38	6	
10	0	0	0	0	508	510	0	589	38	6	
11	0	0	0	0	512	510	0	592	38	7	
12	0	0	0	0	503	510	0	563	38	7	
13	0	0	0	0	510	510	0	500	38	8	
14	0	0	0	0	503	510	0	420	38	8	
15	0	0	0	0	512	510	0	288	38	8	
0	0	0	0	0	510	511	0	175	38	8	
1	0	0	0	0	505	510	0	90	38	7	
2	0	0	0	0	518	510	0	30	38	7	
3	0	0	0	0	509	510	0	0	38	6	
4	0	0	0	0	504	510	0	0	38	6	
5	0	0	0	0	506	510	0	0	38	7	
6	0	0	0	0	509	510	0	0	38	7	
7	0	0	0	0	509	510	0	72	38	8	
8	0	0	0	0	516	510	0	139	38	8	
9	0	0	0	0	513	509	0	207	38	8	
10	0	0	0	0	512	509	0	269	38	8	
11	0	0	0	0	514	508	0	353	38	7	
12	0	0	0	0	511	510	0	458	38	7	
13	0	0	0	0	504	511	0	560	38	6	
14	0	0	0	0	504	510	0	632	38	6	
15	0	0	0	0	510	510	0	676	38	7	
0	0	0	0	0	503	510	0	685	38	7	
1	0	0	0	0	503	510	0	630	38	8	
2	0	0	0	0	509	510	0	532	38	8	
3	0	0	0	0	507	510	0	419	38	8	
4	0	0	0	0	516	510	0	322	38	8	
5	0	0	0	0	513	511	0	257	38	7	
6	0	0	0	0	513	512	0	222	38	7	
7	0	0	0	0	515	511	0	212	38	6	
8	0	0	0	0	505	511	0	232	38	6	
9	0	0	0	0	512	511	0	255	38	7	
10	0	0	0	0	512	511	0	263	38	7	
11	0	0	0	0	510	511	0	280	38	8	
12	0	0	0	0	504	511	0	305	38	8	
13	0	0	0	0	509	511	0	358	38	8	
14	0	0	0	0	515	511	0	435	38	8	
15	0	0	0	0	515	511	0	527	38	7	
0	0	0	0	0	510	511	0	607	38	7	
1	0	0	0	0	509	512	0	688	38	6	
2	0	0	0	0	503	511	0	769	38	6	
3	0	0	0	0	505	511	0	816	38	7	
4	0	0	0	0	508	510	0	831	38	7	
5	0	0	0	0	508	510	0	801	38	8	
6	0	0	0	0	504	510	0	744	38	8	
7	0	0	0	0	505	510	0	670	38	8	
8	0	0	0	0	519	510	0	596	38	8	
9	0	0	0	0	509	511	0	510	38	7	
10	0	0	0	0	509	511	0	435	38	7	
11	0	0	0	0	512	510	0	385	38	6	
12	0	0	0	0	513	511	0	359	38	6	
13	0	0	0	0	514	510	0	354	38	7	
14	0	0	0	0	508	510	0	364	38	7	
15	0	0	0	0	513	510	0	375	38	8	
0	0	0	0	0	509	509	0	375	38	8	
1	0	0	0	0	505	509	0	396	38	8	
2	0	0	0	0	512	510	0	455	38	8	
3	0	0	0	0	508	510	0	545	38	7	
4	0	0	0	0	512	510	0	628	38	7	
5	0	0	0	0	511	510	0	688	38	6	
6	0	0	0	0	508	510	0	709	38	6	
7	0	0	0	0	511	510	0	694	38	7	
8	0	0	0	0	509	510	0	657	38	7	
9	0	0	0	0	505	510	0	577	38	8	
10	0	0	0	0	505	509	0	492	38	8	
11	0	0	0	0	504	510	0	408	38	8	
12	0	0	0	0	514	509	0	315	38	8	
13	0	0	0	0	513	508	0	257	38	7	
14	0	0	0	0	509	508	0	236	38	7	
15	0	0	0	0	507	508	0	238	38	6	
0	0	0	0	0	504	508	0	266	38	6	
1	0	0	0	0	507	508	0	301	38	7	
2	0	0	0	0	516	508	0	335	38	7	
3	0	0	0	0	510	509	0	386	38	8	
4	0	0	0	0	510	509	0	444	38	8	
5	0	0	0	0	512	509	0	495	38	8	
6	0	0	0	0	512	509	0	549	38	8	
7	0	0	0	0	521	509	0	623	38	7	
8	0	0	0	0	506	509	0	704	38	7	
9	0	0	0	0	500	509	0	784	38	6	
10	0	0	0	0	509	509	0	841	38	6	
11	0	0	0	0	513	508	0	856	38	7	
12	0	0	0	0	504	508	0	829	38	7	
13	0	0	0	0	504	508	0	728	38	8	
14	0	0	0	0	508	508	0	595	38	8	
15	0	0	0	0	517	509	0	465	38	8	
0	0	0	0	0	505	510	0	345	38	8	
1	0	0	0	0	507	510	0	256	38	7	
2	0	0	0	0	510	511	0	182	38	7	
3	0	0	0	0	510	511	0	140	38	6	
4	0	0	0	0	510	511	0	131	38	6	
5	0	0	0	0	510	511	0	145	38	7	
6	0	0	0	0	514	510	0	193	38	7	
7	0	0	0	0	513	511	0	258	38	8	
8	0	0	0	0	509	511	0	325	38	8	
9	0	0	0	0	507	511	0	389	38	8	
10	0	0	0	0	514	510	0	454	38	8	
11	0	0	0	0	519	509	0	542	38	7	
12	0	0	0	0	508	508	0	630	38	7	
13	0	0	0	0	507	508	0	703	38	6	
14	0	0	0	0	504	508	0	755	38	6	
15	0	0	0	0	511	508	0	777	38	7	
0	0	0	0	0	498	508	0	773	38	7	
1	0	0	0	0	505	509	0	730	38	8	
2	0	0	0	0	501	510	0	655	38	8	
3	0	0	0	0	511	510	0	576	38	8	
4	0	0	0	0	513	509	0	488	38	8	
5	0	0	0	0	514	509	0	403	38	7	
6	0	0	0	0	508	510	0	336	38	7	
7	0	0	0	0	510	509	0	300	38	6	
8	0	0	0	0	500	509	0	289	38	6	
9	0	0	0	0	514	509	0	309	38	7	
10	0	0	0	0	510	509	0	330	38	7	
11	0	0	0	0	516	509	0	353	38	8	
12	0	0	0	0	513	509	0	372	38	8	
13	0	0	0	0	512	509	0	395	38	8	
14	0	0	0	0	510	509	0	432	38	8	
15	0	0	0	0	512	510	0	513	38	7	
0	0	0	0	0	518	510	0	649	38	7	
1	0	0	0	0	511	509	0	744	38	6	
2	0	0	0	0	511	510	0	782	38	6	
3	0	0	0	0	505	510	0	792	38	7	
4	0	0	0	0	497	510	0	782	38	7	
5	0	0	0	0	499	510	0	771	38	8	
6	0	0	0	0	505	509	0	736	38	8	
7	0	0	0	0	507	509	0	679	38	8	
8	0	0	0	0	512	509	0	616	38	8	
9	0	0	0	0	509	508	0	560	38	7	
10	0	0	0	0	513	508	0	515	38	7	
11	0	0	0	0	516	509	0	497	38	6	
12	0	0	0	0	511	509	0	502	38	6	
13	0	0	0	0	514	509	0	530	38	7	
14	0	0	0	0	511	508	0	576	38	7	
15	0	0	0	0	515	509	0	640	38	8	
0	0	0	0	0	507	509	0	718	38	8	
1	0	0	0	0	504	510	0	798	38	8	
2	0	0	0	0	513	510	0	861	38	8	
3	0	0	0	0	514	510	0	927	38	7	
4	0	0	0	0	502	510	0	997	38	7	
5	0	0	0	0	499	510	0	1018	38	6	
6	0	0	0	0	507	509	0	1018	38	6	
7	0	0	0	0	505	510	0	1018	38	7	
8	0	0	0	0	508	509	0	1018	38	7	
9	0	0	0	0	510	510	0	1018	38	8	
10	0	0	0	0	507	510	0	940	38	8	
11	0	0	0	0	504	509	0	841	38	8	
12	0	0	0	0	509	511	0	722	38	8	
13	0	0	0	0	513	511	0	639	38	7	
14	0	0	0	0	509	510	0	576	38	7	
15	0	0	0	0	513	510	0	519	38	6	
0	0	0	0	0	511	510	0	476	38	6	
1	0	0	0	0	511	510	0	476	38	7	
2	0	0	0	0	516	510	0	527	38	7	
3	0	0	0	0	512	510	0	594	38	8	
4	0	0	0	0	507	510	0	667	38	8	
5	0	0	0	0	513	510	0	732	38	8	
6	0	0	0	0	511	509	0	777	38	8	
7	0	0	0	0	511	508	0	832	38	7	
8	0	0	0	0	513	508	0	908	38	7	
9	0	0	0	0	502	508	0	987	38	6	
10	0	0	0	0	509	508	0	1018	38	6	
11	0	0	0	0	508	508	0	1018	38	7	
12	0	0	0	0	508	509	0	976	38	7	
13	0	0	0	0	503	509	0	911	38	8	
14	0	0	0	0	500	509	0	831	38	8	
15	0	0	0	0	508	509	0	747	38	8	
0	0	0	0	0	511	509	0	643	38	8	
1	0	0	0	0	508	510	0	551	38	7	
2	0	0	0	0	516	509	0	475	38	7	
3	0	0	0	0	512	508	0	452	38	6	
4	0	0	0	0	508	508	0	459	38	6	
5	0	0	0	0	508	508	0	495	38	7	
6	0	0	0	0	512	508	0	516	38	7	
7	0	0	0	0	507	508	0	550	38	8	
8	0	0	0	0	510	508	0	591	38	8	
9	0	0	0	0	510	509	0	646	38	8	
10	0	0	0	0	513	509	0	722	38	8	
11	0	0	0	0	510	508	0	812	38	7	
12	0	0	0	0	509	509	0	896	38	7	
13	0	0	0	0	503	509	0	979	38	6	
14	0	0	0	0	508	509	0	1018	38	6	
15	0	0	0	0	518	509	0	1018	38	7	
0	0	0	0	0	506	509	0	1018	38	7	
1	0	0	0	0	503	509	0	1018	38	8	
2	0	0	0	0	503	509	0	1018	38	8	
3	0	0	0	0	506	509	0	1018	38	8	
4	0	0	0	0	510	508	0	1017	38	8	
5	0	0	0	0	511	508	0	912	38	7	
6	0	0	0	0	519	508	0	880	38	7	
7	0	0	0	0	511	508	0	850	38	6	
8	0	0	0	0	514	509	0	816	38	6	
9	0	0	0	0	505	509	0	787	38	7	
10	0	0	0	0	511	509	0	772	38	7	
11	0	0	0	0	519	510	0	787	38	8	
12	0	0	0	0	507	509	0	792	38	8	
13	0	0	0	0	507	510	0	813	38	8	
14	0	0	0	0	515	509	0	847	38	8	
15	0	0	0	0	521	510	0	885	38	7	
0	0	0	0	0	508	510	0	911	38	7	
1	0	0	0	0	501	510	0	930	38	6	
2	0	0	0	0	508	510	0	954	38	6	
3	0	0	0	0	499	509	0	946	38	7	
4	0	0	0	0	508	508	0	903	38	7	
5	0	0	0	0	497	508	0	838	38	8	
6	0	0	0	0	505	508	0	763	38	8	
7	0	0	0	0	506	509	0	671	38	8	
8	0	0	0	0	514	509	0	600	38	8	
9	0	0	0	0	516	509	0	566	38	7	
10	0	0	0	0	515	509	0	543	38	7	
11	0	0	0	0	509	510	0	514	38	6	
12	0	0	0	0	518	511	0	496	38	6	
13	0	0	0	0	513	511	0	499	38	7	
14	0	0	0	0	510	511	0	516	38	7	
15	0	0	0	0	510	510	0	530	38	8	
0	0	0	0	0	513	510	0	558	38	8	
1	0	0	0	0	512	510	0	608	38	8	
2	0	0	0	0	511	509	0	664	38	8	
3	0	0	0	0	504	508	0	704	38	7	
4	0	0	0	0	505	508	0	728	38	7	
5	0	0	0	0	502	507	0	743	38	6	
6	0	0	0	0	511	507	0	749	38	6	
7	0	0	0	0	504	507	0	747	38	7	
8	0	0	0	0	503	507	0	723	38	7	
9	0	0	0	0	511	507	0	668	38	8	
10	0	0	0	0	504	507	0	591	38	8	
11	0	0	0	0	510	506	0	483	38	8	
12	0	0	0	0	512	507	0	373	38	8	
13	0	0	0	0	514	506	0	281	38	7	
14	0	0	0	0	507	507	0	188	38	7	
15	0	0	0	0	514	507	0	88	38	6	
0	0	0	0	0	503	507	0	1	38	6	
1	0	0	0	0	512	508	0	0	38	7	
2	0	0	0	0	511	508	0	0	38	7	
3	0	0	0	0	511	509	0	0	38	8	
4	0	0	0	0	506	509	0	0	38	8	
5	0	0	0	0	510	509	0	0	38	8	
6	0	0	0	0	514	510	0	0	38	8	
7	0	0	0	0	517	509	0	0	38	7	
8	0	0	0	0	508	509	0	0	38	7	
9	0	0	0	0	515	509	0	0	38	6	
10	0	0	0	0	507	508	0	0	38	6	
11	0	0	0	0	500	508	0	0	38	7	
12	0	0	0	0	505	508	0	0	38	7	
13	0	0	0	0	504	508	0	0	38	8	
14	0	0	0	0	503	508	0	0	38	8	
15	0	0	0	0	512	507	0	0	38	8	
0	0	0	0	0	510	507	0	0	38	8	
1	0	0	0	0	511	507	0	0	38	7	
2	0	0	0	0	513	507	0	0	38	7	
3	0	0	0	0	511	507	0	0	38	6	
4	0	0	0	0	511	508	0	0	38	6	
5	0	0	0	0	508	507	0	0	38	7	
6	0	0	0	0	514	507	0	0	38	7	
7	0	0	0	0	512	507	0	0	38	8	
8	0	0	0	0	504	507	0	0	38	8	
9	0	0	0	0	501	507	0	0	38	8	
10	0	0	0	0	519	508	0	0	38	8	
11	0	0	0	0	511	507	0	0	38	7	
12	0	0	0	0	512	508	0	0	38	7	
13	0	0	0	0	504	508	0	0	38	6	
14	0	0	0	0	507	508	0	0	38	6	
15	0	0	0	0	510	508	0	0	38	7	
0	0	0	0	0	499	508	0	0	38	7	
1	0	0	0	0	509	508	0	0	38	8	
2	0	0	0	0	508	507	0	0	38	8	
3	0	0	0	0	512	508	0	0	38	8	
4	0	0	0	0	510	508	0	0	38	8	
5	0	0	0	0	513	508	0	0	38	7	
6	0	0	0	0	511	508	0	0	38	7	
7	0	0	0	0	515	508	0	0	38	6	
8	0	0	0	0	508	509	0	0	38	6	
9	0	0	0	0	515	509	0	0	38	7	
10	0	0	0	0	513	508	0	0	38	7	
11	0	0	0	0	511	509	0	0	38	8	
12	0	0	0	0	508	509	0	0	38	8	
13	0	0	0	0	508	509	0	0	38	8	
14	0	0	0	0	511	509	0	0	38	8	
15	0	0	0	0	508	508	0	0	38	7	
0	0	0	0	0	513	508	0	0	38	7	
1	0	0	0	0	501	508	0	0	38	6	
2	0	0	0	0	509	508	0	0	38	6	
3	0	0	0	0	507	508	0	0	38	7	
4	0	0	0	0	503	508	0	0	38	7	
5	0	0	0	0	511	508	0	0	38	8	
6	0	0	0	0	506	507	0	0	38	8	
7	0	0	0	0	506	508	0	0	38	8	
8	0	0	0	0	516	509	0	0	38	8	
9	0	0	0	0	514	509	0	0	38	7	
10	0	0	0	0	506	509	0	0	38	7	
11	0	0	0	0	508	509	0	0	38	6	
12	0	0	0	0	510	509	0	0	38	6	
13	0	0	0	0	512	509	0	0	38	7	
14	0	0	0	0	506	509	0	0	38	7	
15	0	0	0	0	511	509	0	0	38	8	
0	0	0	0	0	511	509	0	0	38	8	
1	0	0	0	0	512	510	0	0	38	8	
2	0	0	0	0	509	510	0	0	38	8	
3	0	0	0	0	512	509	0	0	38	7	
4	0	0	0	0	511	509	0	0	38	7	
5	0	0	0	0	508	508	0	0	38	6	
6	0	0	0	0	504	508	0	0	38	6	
7	0	0	0	0	503	507	0	0	38	7	
8	0	0	0	0	503	507	0	0	38	7	
9	0	0	0	0	513	507	0	0	38	8	
10	0	0	0	0	510	507	0	0	38	8	
11	0	0	0	0	508	508	0	0	38	8	
12	0	0	0	0	505	509	0	0	38	8	
13	0	0	0	0	511	509	0	0	38	7	
14	0	0	0	0	512	509	0	0	38	7	
15	0	0	0	0	511	509	0	0	38	6	
0	0	0	0	0	512	509	0	0	38	6	
1	0	0	0	0	511	509	0	0	38	7	
2	0	0	0	0	507	508	0	0	38	7	
3	0	0	0	0	509	508	0	0	38	8	
4	0	0	0	0	518	508	0	0	38	8	
5	0	0	0	0	512	509	0	0	38	8	
6	0	0	0	0	513	510	0	0	38	8	
7	0	0	0	0	511	510	0	0	38	7	
8	0	0	0	0	504	511	0	0	38	7	
9	0	0	0	0	509	511	0	0	38	6	
10	0	0	0	0	515	511	0	0	38	6	
11	0	0	0	0	507	512	0	0	38	7	
12	0	0	0	0	504	511	0	0	38	7	
13	0	0	0	0	502	512	0	0	38	8	
14	0	0	0	0	506	511	0	0	38	8	
15	0	0	0	0	512	511	0	0	38	8	
0	0	0	0	0	510	510	0	0	38	8	
1	0	0	0	0	518	509	0	0	38	7	
2	0	0	0	0	508	510	0	0	38	7	
3	0	0	0	0	511	510	0	0	38	6	
4	0	0	0	0	510	509	0	0	38	6	
5	0	0	0	0	515	509	0	0	38	7	
6	0	0	0	0	509	509	0	0	38	7	
7	0	0	0	0	511	509	0	0	38	8	
8	0	0	0	0	507	508	0	0	38	8	
9	0	0	0	0	504	508	0	0	38	8	
10	0	0	0	0	513	509	0	0	38	8	
11	0	0	0	0	509	510	0	0	38	7	
12	0	0	0	0	512	511	0	0	38	7	
13	0	0	0	0	508	511	0	0	38	6	
14	0	0	0	0	505	511	0	0	38	6	
15	0	0	0	0	506	510	0	0	38	7	
0	0	0	0	0	506	510	0	0	38	7	
1	0	0	0	0	507	510	0	0	38	8	
2	0	0	0	0	507	509	0	0	38	8	
3	0	0	0	0	508	509	0	0	38	8	
4	0	0	0	0	520	509	0	0	38	8	
5	0	0	0	0	512	509	0	0	38	7	
6	0	0	0	0	510	510	0	0	38	7	
7	0	0	0	0	510	510	0	0	38	6	
8	0	0	0	0	503	509	0	0	38	6	
9	0	0	0	0	515	510	0	0	38	7	
10	0	0	0	0	508	511	0	0	38	7	
11	0	0	0	0	504	511	0	0	38	8	
12	0	0	0	0	511	509	0	0	38	8	
13	0	0	0	0	511	510	0	0	38	8	
14	0	0	0	0	514	508	0	0	38	8	
15	0	0	0	0	514	508	0	0	38	7	
0	0	0	0	0	511	509	0	0	38	7	
1	0	0	0	0	503	509	0	0	38	6	
2	0	0	0	0	508	508	0	0	38	6	
3	0	0	0	0	499	509	0	0	38	7	
4	0	0	0	0	499	510	0	0	38	7	
5	0	0	0	0	512	510	0	0	38	8	
6	0	0	0	0	502	510	0	0	38	8	
7	0	0	0	0	504	510	0	0	38	8	
8	0	0	0	0	510	509	0	0	38	8	
9	0	0	0	0	518	509	0	0	38	7	
10	0	0	0	0	514	510	0	0	38	7	
11	0	0	0	0	510	510	0	0	38	6	
12	0	0	0	0	506	510	0	0	38	6	
13	0	0	0	0	514	511	0	0	38	7	
14	0	0	0	0	511	511	0	0	38	7	
15	0	0	0	0	511	512	0	73	38	8	
0	0	0	0	0	512	511	0	86	38	8	
1	0	0	0	0	506	510	0	90	38	8	
2	0	0	0	0	514	510	0	92	38	8	
3	0	0	0	0	511	509	0	108	38	7	
4	0	0	0	0	513	509	0	132	38	7	
5	0	0	0	0	505	508	0	159	38	6	
6	0	0	0	0	499	510	0	170	38	6	
7	0	0	0	0	509	511	0	158	38	7	
8	0	0	0	0	497	511	0	143	38	7	
9	0	0	0	0	511	511	0	110	38	8	
10	0	0	0	0	511	511	0	65	38	8	
11	0	0	0	0	510	511	0	12	38	8	
12	0	0	0	0	512	512	0	0	38	8	
13	0	0	0	0	518	511	0	0	38	7	
14	0	0	0	0	506	511	0	0	38	7	
15	0	0	0	0	506	510	0	0	38	6	
0	0	0	0	0	512	510	0	0	38	6	
1	0	0	0	0	506	510	0	0	38	7	
2	0	0	0	0	507	510	0	121	38	7	
3	0	0	0	0	513	512	0	178	38	8	
4	0	0	0	0	512	512	0	224	38	8	
5	0	0	0	0	510	512	0	257	38	8	
6	0	0	0	0	518	512	0	303	38	8	
7	0	0	0	0	507	512	0	374	38	7	
8	0	0	0	0	510	512	0	473	38	7	
9	0	0	0	0	510	511	0	579	38	6	
10	0	0	0	0	505	511	0	657	38	6	
11	0	0	0	0	510	510	0	699	38	7	
12	0	0	0	0	504	510	0	711	38	7	
13	0	0	0	0	502	510	0	694	38	8	
14	0	0	0	0	508	510	0	627	38	8	
15	0	0	0	0	505	510	0	526	38	8	
0	0	0	0	0	511	511	0	441	38	8	
1	0	0	0	0	512	511	0	389	38	7	
2	0	0	0	0	509	511	0	367	38	7	
3	0	0	0	0	519	510	0	395	38	6	
4	0	0	0	0	512	510	0	428	38	6	
5	0	0	0	0	508	510	0	447	38	7	
6	0	0	0	0	511	511	0	455	38	7	
7	0	0	0	0	512	511	0	454	38	8	
8	0	0	0	0	507	510	0	480	38	8	
9	0	0	0	0	510	511	0	530	38	8	
10	0	0	0	0	513	511	0	603	38	8	
11	0	0	0	0	512	511	0	707	38	7	
12	0	0	0	0	509	511	0	813	38	7	
13	0	0	0	0	503	511	0	906	38	6	
14	0	0	0	0	507	511	0	979	38	6	
15	0	0	0	0	504	511	0	1018	38	7	
0	0	0	0	0	504	510	0	1018	38	7	
1	0	0	0	0	511	511	0	1018	38	8	
2	0	0	0	0	504	511	0	1018	38	8	
3	0	0	0	0	508	511	0	937	38	8	
4	0	0	0	0	515	511	0	863	38	8	
5	0	0	0	0	510	510	0	813	38	7	
6	0	0	0	0	503	510	0	805	38	7	
7	0	0	0	0	518	510	0	831	38	6	
8	0	0	0	0	509	510	0	864	38	6	
9	0	0	0	0	513	510	0	885	38	7	
10	0	0	0	0	509	511	0	908	38	7	
11	0	0	0	0	508	511	0	945	38	8	
12	0	0	0	0	511	511	0	968	38	8	
13	0	0	0	0	503	511	0	983	38	8	
14	0	0	0	0	518	511	0	1016	38	8	
15	0	0	0	0	516	511	0	1018	38	7	
0	0	0	0	0	507	511	0	1018	38	7	
1	0	0	0	0	500	510	0	1018	38	6	
2	0	0	0	0	517	510	0	1018	38	6	
3	0	0	0	0	510	510	0	1018	38	7	
4	0	0	0	0	507	510	0	1018	38	7	
5	0	0	0	0	506	510	0	1018	38	8	
6	0	0	0	0	507	510	0	1018	38	8	
7	0	0	0	0	505	511	0	1018	38	8	
8	0	0	0	0	512	511	0	1018	38	8	
9	0	0	0	0	512	510	0	1018	38	7	
10	0	0	0	0	511	511	0	1018	38	7	
11	0	0	0	0	512	511	0	1018	38	6	
12	0	0	0	0	515	511	0	1018	38	6	
13	0	0	0	0	506	511	0	1018	39	7	
14	0	0	0	0	514	511	0	1018	38	7	
15	0	0	0	0	511	511	0	1018	38	8	
0	0	0	0	0	504	510	0	1018	38	8	
1	0	0	0	0	510	510	0	1018	38	8	
2	0	0	0	0	510	510	0	1018	38	8	
3	0	0	0	0	509	510	0	1018	38	7	
4	0	0	0	0	511	511	0	1018	38	7	
5	0	0	0	0	512	511	0	1018	39	6	
6	0	0	0	0	513	511	0	1018	38	6	
7	0	0	0	0	515	511	0	1018	39	7	
8	0	0	0	0	504	511	0	1018	38	7	
9	0	0	0	0	509	511	0	1018	38	8	
10	0	0	0	0	503	511	0	1018	38	8	
11	0	0	0	0	507	510	0	1018	38	8	
12	0	0	0	0	511	510	0	1018	38	8	
13	0	0	0	0	510	510	0	1018	39	7	
14	0	0	0	0	518	510	0	1018	38	7	
15	0	0	0	0	508	509	0	1018	38	6	
0	0	0	0	0	508	510	0	1018	38	6	
1	0	0	0	0	515	510	0	1018	38	7	
2	0	0	0	0	509	510	0	1018	38	7	
3	0	0	0	0	510	511	0	1018	38	8	
4	0	0	0	0	508	511	0	1018	38	8	
5	0	0	0	0	509	512	0	1018	39	8	
6	0	0	0	0	516	512	0	1018	38	8	
7	0	0	0	0	512	512	0	1018	38	7	
8	0	0	0	0	507	511	0	1018	38	7	
9	0	0	0	0	508	511	0	1018	38	6	
10	0	0	0	0	507	511	0	1018	38	6	
11	0	0	0	0	499	511	0	1018	38	7	
12	0	0	0	0	502	510	0	1018	38	7	
13	0	0	0	0	506	509	0	1018	39	8	
14	0	0	0	0	506	508	0	1018	38	8	
15	0	0	0	0	506	508	0	1018	38	8	
0	0	0	0	0	513	508	0	1018	38	8	
1	0	0	0	0	513	508	0	1018	38	7	
2	0	0	0	0	511	509	0	1018	38	7	
3	0	0	0	0	509	509	0	1018	38	6	
4	0	0	0	0	517	509	0	1018	38	6	
5	0	0	0	0	515	509	0	1018	38	7	
6	0	0	0	0	508	509	0	1018	38	7	
7	0	0	0	0	513	510	0	1018	38	8	
8	0	0	0	0	516	510	0	1018	38	8	
9	0	0	0	0	508	509	0	1018	38	8	
10	0	0	0	0	512	510	0	1018	38	8	
11	0	0	0	0	502	509	0	1018	38	7	
12	0	0	0	0	511	509	0	1018	38	7	
13	0	0	0	0	513	509	0	1018	38	6	
14	0	0	0	0	504	509	0	1018	38	6	
15	0	0	0	0	505	509	0	1018	38	7	
0	0	0	0	0	505	509	0	1018	38	7	
1	0	0	0	0	510	509	0	1018	38	8	
2	0	0	0	0	507	509	0	1018	38	8	
3	0	0	0	0	512	509	0	1018	38	8	
4	0	0	0	0	511	510	0	1018	38	8	
5	0	0	0	0	512	509	0	1018	38	7	
6	0	0	0	0	512	509	0	1018	38	7	
7	0	0	0	0	508	509	0	1018	38	6	
8	0	0	0	0	510	508	0	1018	38	6	
9	0	0	0	0	504	508	0	1018	38	7	
10	0	0	0	0	510	509	0	1018	38	7	
11	0	0	0	0	513	510	0	1018	38	8	
12	0	0	0	0	512	509	0	1018	38	8	
13	0	0	0	0	503	510	0	1018	38	8	
14	0	0	0	0	513	510	0	1018	38	8	
15	0	0	0	0	512	510	0	1018	38	7	
0	0	0	0	0	508	510	0	1018	38	7	
1	0	0	0	0	510	509	0	1018	38	6	
2	0	0	0	0	509	509	0	1018	38	6	
3	0	0	0	0	512	510	0	1018	38	7	
4	0	0	0	0	502	510	0	1018	38	7	
5	0	0	0	0	501	510	0	1018	38	8	
6	0	0	0	0	511	510	0	1018	38	8	
7	0	0	0	0	513	511	0	1018	38	8	
8	0	0	0	0	509	511	0	1018	38	8	
9	0	0	0	0	508	511	0	1018	38	7	
10	0	0	0	0	518	512	0	1018	38	7	
11	0	0	0	0	508	511	0	1018	38	6	
12	0	0	0	0	510	510	0	1018	38	6	
13	0	0	0	0	508	510	0	1018	38	7	
14	0	0	0	0	509	510	0	1018	38	7	
15	0	0	0	0	505	511	0	1018	38	8	
0	0	0	0	0	505	511	0	1018	38	8	
1	0	0	0	0	507	511	0	1018	38	8	
2	0	0	0	0	513	510	0	1018	38	8	
3	0	0	0	0	516	510	0	1018	38	7	
4	0	0	0	0	512	510	0	1018	38	7	
5	0	0	0	0	504	510	0	1018	38	6	
6	0	0	0	0	506	510	0	1018	38	6	
7	0	0	0	0	507	510	0	1018	38	7	
8	0	0	0	0	506	510	0	1018	38	7	
9	0	0	0	0	507	510	0	1018	38	8	
10	0	0	0	0	508	511	0	1018	38	8	
11	0	0	0	0	508	512	0	1018	38	8	
12	0	0	0	0	507	512	0	1018	38	8	
13	0	0	0	0	510	512	0	1018	38	7	
14	0	0	0	0	514	512	0	1018	38	7	
15	0	0	0	0	505	512	0	1018	38	6	
0	0	0	0	0	515	512	0	1018	38	6	
1	0	0	0	0	515	511	0	1018	38	7	
2	0	0	0	0	512	511	0	1018	38	7	
3	0	0	0	0	505	511	0	1018	38	8	
4	0	0	0	0	507	511	0	1018	38	8	
5	0	0	0	0	514	510	0	1018	38	8	
6	0	0	0	0	511	510	0	1018	38	8	
7	0	0	0	0	517	510	0	1018	38	7	
8	0	0	0	0	509	510	0	1018	38	7	
9	0	0	0	0	514	509	0	1018	38	6	
10	0	0	0	0	507	509	0	1018	38	6	
11	0	0	0	0	514	509	0	1018	38	7	
12	0	0	0	0	499	509	0	1018	38	7	
13	0	0	0	0	508	510	0	1018	38	8	
14	0	0	0	0	508	510	0	1018	38	8	
15	0	0	0	0	510	510	0	1018	38	8	
0	0	0	0	0	512	510	0	1018	38	8	
1	0	0	0	0	515	511	0	1018	38	7	
2	0	0	0	0	510	511	0	956	38	7	
3	0	0	0	0	514	510	0	948	38	6	
4	0	0	0	0	504	511	0	934	38	6	
5	0	0	0	0	507	511	0	920	38	7	
6	0	0	0	0	507	511	0	923	38	7	
7	0	0	0	0	512	512	0	935	38	8	
8	0	0	0	0	514	512	0	960	38	8	
9	0	0	0	0	510	511	0	993	38	8	
10	0	0	0	0	514	511	0	1018	38	8	
11	0	0	0	0	508	512	0	1018	38	7	
12	0	0	0	0	508	512	0	1018	38	7	
13	0	0	0	0	508	512	0	1018	38	6	
14	0	0	0	0	508	512	0	1018	38	6	
15	0	0	0	0	509	511	0	1018	38	7	
0	0	0	0	0	504	511	0	1018	38	7	
1	0	0	0	0	511	511	0	1018	38	8	
2	0	0	0	0	508	511	0	1018	38	8	
3	0	0	0	0	507	511	0	1018	38	8	
4	0	0	0	0	512	511	0	940	38	8	
5	0	0	0	0	519	511	0	941	38	7	
6	0	0	0	0	510	512	0	967	38	7	
7	0	0	0	0	505	512	0	975	38	6	
8	0	0	0	0	512	513	0	972	38	6	
9	0	0	0	0	517	513	0	968	38	7	
10	0	0	0	0	513	512	0	970	38	7	
11	0	0	0	0	507	512	0	982	38	8	
12	0	0	0	0	508	512	0	988	38	8	
13	0	0	0	0	509	512	0	987	38	8	
14	0	0	0	0	511	512	0	984	38	8	
15	0	0	0	0	515	511	0	996	38	7	
0	0	0	0	0	511	511	0	1018	38	7	
1	0	0	0	0	504	511	0	1018	38	6	
2	0	0	0	0	511	512	0	1018	38	6	
3	0	0	0	0	500	512	0	1018	38	7	
4	0	0	0	0	505	511	0	1018	38	7	
5	0	0	0	0	504	511	0	1018	38	8	
6	0	0	0	0	509	511	0	1018	38	8	
7	0	0	0	0	510	511	0	884	38	8	
8	0	0	0	0	519	510	0	792	38	8	
9	0	0	0	0	510	511	0	757	38	7	
10	0	0	0	0	514	511	0	762	38	7	
11	0	0	0	0	508	511	0	796	38	6	
12	0	0	0	0	513	511	0	852	38	6	
13	0	0	0	0	507	511	0	882	38	7	
14	0	0	0	0	513	511	0	915	38	7	
15	0	0	0	0	510	511	0	945	38	8	
0	0	0	0	0	512	511	0	966	38	8	
1	0	0	0	0	510	511	0	973	38	8	
2	0	0	0	0	509	511	0	953	38	8	
3	0	0	0	0	515	511	0	952	38	7	
4	0	0	0	0	510	510	0	982	38	7	
5	0	0	0	0	507	511	0	997	38	6	
6	0	0	0	0	509	512	0	996	38	6	
7	0	0	0	0	512	511	0	1004	38	7	
8	0	0	0	0	503	511	0	1017	38	7	
9	0	0	0	0	506	511	0	1018	38	8	
10	0	0	0	0	506	510	0	997	38	8	
11	0	0	0	0	504	510	0	947	38	8	
12	0	0	0	0	510	510	0	894	38	8	
13	0	0	0	0	504	510	0	847	38	7	
14	0	0	0	0	505	510	0	833	38	7	
15	0	0	0	0	507	509	0	836	38	6	
0	0	0	0	0	515	510	0	847	38	6	
1	0	0	0	0	516	510	0	866	38	7	
2	0	0	0	0	513	510	0	893	38	7	
3	0	0	0	0	510	511	0	927	38	8	
4	0	0	0	0	506	511	0	960	38	8	
5	0	0	0	0	512	511	0	989	38	8	
6	0	0	0	0	511	510	0	1009	38	8	
7	0	0	0	0	514	510	0	1018	38	7	
8	0	0	0	0	507	509	0	1018	38	7	
9	0	0	0	0	507	509	0	1018	38	6	
10	0	0	0	0	500	508	0	1018	38	6	
11	0	0	0	0	508	508	0	1018	38	7	
12	0	0	0	0	506	509	0	1018	38	7	
13	0	0	0	0	499	509	0	1018	38	8	
14	0	0	0	0	512	509	0	1018	38	8	
15	0	0	0	0	509	510	0	927	38	8	
0	0	0	0	0	516	510	0	868	38	8	
1	0	0	0	0	514	511	0	840	38	7	
2	0	0	0	0	512	511	0	838	38	7	
3	0	0	0	0	508	510	0	839	38	6	
4	0	0	0	0	506	510	0	848	38	6	
5	0	0	0	0	512	510	0	866	38	6	
6	0	0	0	0	508	510	0	894	38	7	
7	0	0	0	0	509	510	0	932	38	8	
8	0	0	0	0	505	511	0	977	38	8	
9	0	0	0	0	516	512	0	1017	38	8	
10	0	0	0	0	516	512	0	1018	38	8	
11	0	0	0	0	508	512	0	1018	38	7	
12	0	0	0	0	516	511	0	1018	38	7	
13	0	0	0	0	505	510	0	1018	38	6	
14	0	0	0	0	510	510	0	1018	38	6	
15	0	0	0	0	506	510	0	1018	38	7	
0	0	0	0	0	511	510	0	1018	38	7	
1	0	0	0	0	506	510	0	1018	38	8	
2	0	0	0	0	504	510	0	918	38	8	
3	0	0	0	0	498	509	0	828	38	8	
4	0	0	0	0	515	510	0	739	38	8	
5	0	0	0	0	511	509	0	664	38	7	
6	0	0	0	0	509	510	0	620	38	7	
7	0	0	0	0	512	510	0	594	38	6	
8	0	0	0	0	511	511	0	595	38	6	
9	0	0	0	0	503	511	0	606	38	7	
10	0	0	0	0	517	511	0	606	38	7	
11	0	0	0	0	505	511	0	609	38	8	
12	0	0	0	0	511	511	0	616	38	8	
13	0	0	0	0	508	511	0	595	38	8	
14	0	0	0	0	514	511	0	555	38	8	
15	0	0	0	0	515	511	0	553	38	7	
0	0	0	0	0	511	512	0	585	38	7	
1	0	0	0	0	508	512	0	636	38	6	
2	0	0	0	0	516	512	0	676	38	6	
3	0	0	0	0	507	512	0	698	38	7	
4	0	0	0	0	499	511	0	692	38	7	
5	0	0	0	0	506	511	0	648	38	8	
6	0	0	0	0	509	511	0	575	38	8	
7	0	0	0	0	501	511	0	487	38	8	
8	0	0	0	0	514	512	0	406	38	8	
9	0	0	0	0	515	511	0	348	38	7	
10	0	0	0	0	509	511	0	305	38	7	
11	0	0	0	0	515	511	0	275	38	6	
12	0	0	0	0	512	511	0	269	38	6	
13	0	0	0	0	511	511	0	276	38	7	
14	0	0	0	0	510	511	0	296	38	7	
15	0	0	0	0	508	511	0	322	38	8	
0	0	0	0	0	508	512	0	342	38	8	
1	0	0	0	0	516	512	0	352	38	8	
2	0	0	0	0	514	511	0	362	38	8	
3	0	0	0	0	511	511	0	405	38	7	
4	0	0	0	0	512	511	0	451	38	7	
5	0	0	0	0	505	511	0	485	38	6	
6	0	0	0	0	512	510	0	508	38	6	
7	0	0	0	0	502	511	0	517	38	6	
8	0	0	0	0	509	510	0	507	38	7	
9	0	0	0	0	505	511	0	476	38	8	
10	0	0	0	0	507	511	0	439	38	8	
11	0	0	0	0	508	511	0	396	38	8	
12	0	0	0	0	507	510	0	352	38	8	
13	0	0	0	0	514	511	0	323	38	7	
14	0	0	0	0	507	510	0	313	38	7	
15	0	0	0	0	509	510	0	294	38	6	
0	0	0	0	0	510	511	0	292	38	6	
1	0	0	0	0	512	510	0	307	38	7	
2	0	0	0	0	520	510	0	327	38	7	
3	0	0	0	0	507	511	0	343	38	8	
4	0	0	0	0	515	512	0	343	38	8	
5	0	0	0	0	504	512	0	326	38	8	
6	0	0	0	0	511	512	0	324	38	8	
7	0	0	0	0	509	512	0	333	38	7	
8	0	0	0	0	513	511	0	355	38	7	
9	0	0	0	0	511	510	0	410	38	6	
10	0	0	0	0	503	510	0	470	38	6	
11	0	0	0	0	506	509	0	529	38	7	
12	0	0	0	0	504	508	0	563	38	7	
13	0	0	0	0	500	509	0	566	38	8	
14	0	0	0	0	505	509	0	546	38	8	
15	0	0	0	0	514	509	0	504	38	8	
0	0	0	0	0	517	510	0	441	38	8	
1	0	0	0	0	512	509	0	390	38	7	
2	0	0	0	0	507	510	0	386	38	7	
3	0	0	0	0	512	510	0	402	38	6	
4	0	0	0	0	509	510	0	421	38	6	
5	0	0	0	0	515	510	0	448	38	7	
6	0	0	0	0	505	510	0	481	38	7	
7	0	0	0	0	508	510	0	511	38	8	
8	0	0	0	0	512	510	0	527	38	8	
9	0	0	0	0	507	510	0	538	38	8	
10	0	0	0	0	514	511	0	551	38	8	
11	0	0	0	0	513	511	0	590	38	7	
12	0	0	0	0	511	511	0	649	38	7	
13	0	0	0	0	504	511	0	716	38	6	
14	0	0	0	0	509	511	0	774	38	6	
15	0	0	0	0	510	510	0	809	38	7	
0	0	0	0	0	508	510	0	811	38	7	
1	0	0	0	0	509	510	0	771	38	8	
2	0	0	0	0	507	510	0	715	38	8	
3	0	0	0	0	501	510	0	622	38	8	
4	0	0	0	0	504	511	0	510	38	8	
5	0	0	0	0	513	510	0	430	38	7	
6	0	0	0	0	510	510	0	388	38	7	
7	0	0	0	0	512	510	0	399	38	6	
8	0	0	0	0	505	510	0	422	38	6	
9	0	0	0	0	510	509	0	444	38	7	
10	0	0	0	0	511	509	0	499	38	7	
11	0	0	0	0	515	510	0	547	38	8	
12	0	0	0	0	508	510	0	524	38	8	
13	0	0	0	0	509	509	0	496	38	8	
14	0	0	0	0	513	509	0	526	38	8	
15	0	0	0	0	515	509	0	594	38	7	
0	0	0	0	0	511	509	0	692	38	7	
1	0	0	0	0	504	508	0	770	38	6	
2	0	0	0	0	510	508	0	810	38	6	
3	0	0	0	0	507	508	0	826	38	7	
4	0	0	0	0	504	508	0	830	38	7	
5	0	0	0	0	508	508	0	802	38	8	
6	0	0	0	0	503	508	0	750	38	8	
7	0	0	0	0	511	508	0	684	38	8	
8	0	0	0	0	515	509	0	623	38	8	
9	0	0	0	0	513	510	0	580	38	7	
10	0	0	0	0	508	510	0	546	38	7	
11	0	0	0	0	512	509	0	517	38	6	
12	0	0	0	0	512	509	0	491	38	6	
13	0	0	0	0	510	509	0	483	38	7	
14	0	0	0	0	514	509	0	494	38	7	
15	0	0	0	0	511	510	0	520	38	8	
0	0	0	0	0	510	509	0	539	38	8	
1	0	0	0	0	505	510	0	550	38	8	
2	0	0	0	0	512	510	0	570	38	8	
3	0	0	0	0	517	510	0	611	38	7	
4	0	0	0	0	512	510	0	667	38	7	
5	0	0	0	0	510	510	0	722	38	6	
6	0	0	0	0	502	510	0	757	38	6	
7	0	0	0	0	497	510	0	761	38	7	
8	0	0	0	0	504	509	0	745	38	7	
9	0	0	0	0	506	510	0	700	38	8	
10	0	0	0	0	505	510	0	635	38	8	
11	0	0	0	0	518	511	0	571	38	8	
12	0	0	0	0	508	511	0	525	38	8	
13	0	0	0	0	510	511	0	497	38	7	
14	0	0	0	0	509	510	0	486	38	7	
15	0	0	0	0	511	510	0	478	38	6	
0	0	0	0	0	507	511	0	477	38	6	
1	0	0	0	0	516	510	0	475	38	7	
2	0	0	0	0	508	510	0	478	38	7	
3	0	0	0	0	513	510	0	480	38	8	
4	0	0	0	0	513	511	0	488	38	8	
5	0	0	0	0	513	510	0	499	38	8	
6	0	0	0	0	514	510	0	523	38	8	
7	0	0	0	0	511	510	0	560	38	7	
8	0	0	0	0	510	510	0	614	38	7	
9	0	0	0	0	507	509	0	668	38	6	
10	0	0	0	0	503	510	0	696	38	6	
11	0	0	0	0	507	510	0	713	38	7	
12	0	0	0	0	503	510	0	700	38	7	
13	0	0	0	0	511	510	0	674	38	8	
14	0	0	0	0	504	509	0	623	38	8	
15	0	0	0	0	503	510	0	553	38	8	
0	0	0	0	0	513	510	0	487	38	8	
1	0	0	0	0	513	509	0	448	38	7	
2	0	0	0	0	509	509	0	432	38	7	
3	0	0	0	0	517	509	0	437	38	6	
4	0	0	0	0	509	510	0	457	38	6	
5	0	0	0	0	513	511	0	483	38	7	
6	0	0	0	0	512	511	0	516	38	7	
7	0	0	0	0	512	512	0	548	38	8	
8	0	0	0	0	504	512	0	588	38	8	
9	0	0	0	0	508	512	0	624	38	8	
10	0	0	0	0	516	511	0	671	38	8	
11	0	0	0	0	513	511	0	733	38	7	
12	0	0	0	0	513	511	0	800	38	7	
13	0	0	0	0	505	510	0	859	38	6	
14	0	0	0	0	507	510	0	894	38	6	
15	0	0	0	0	506	509	0	910	38	7	
0	0	0	0	0	501	509	0	901	38	7	
1	0	0	0	0	509	509	0	856	38	8	
2	0	0	0	0	502	509	0	785	38	8	
3	0	0	0	0	503	509	0	698	38	8	
4	0	0	0	0	513	510	0	620	38	8	
5	0	0	0	0	516	509	0	566	38	7	
6	0	0	0	0	509	510	0	544	38	7	
7	0	0	0	0	514	510	0	545	38	6	
8	0	0	0	0	511	510	0	560	38	6	
9	0	0	0	0	513	510	0	561	38	7	
10	0	0	0	0	509	510	0	577	38	7	
11	0	0	0	0	502	510	0	590	38	8	
12	0	0	0	0	506	510	0	605	38	8	
13	0	0	0	0	516	510	0	613	38	8	
14	0	0	0	0	520	510	0	624	38	8	
15	0	0	0	0	518	510	0	683	38	7	
0	0	0	0	0	509	511	0	796	38	7	
1	0	0	0	0	503	510	0	863	38	6	
2	0	0	0	0	501	510	0	829	38	6	
3	0	0	0	0	507	510	0	759	38	7	
4	0	0	0	0	499	510	0	684	38	7	
5	0	0	0	0	508	511	0	554	38	8	
6	0	0	0	0	505	511	0	424	38	8	
7	0	0	0	0	512	511	0	357	38	8	
8	0	0	0	0	517	512	0	384	38	8	
9	0	0	0	0	510	512	0	442	38	7	
10	0	0	0	0	511	512	0	376	38	7	
11	0	0	0	0	507	512	0	243	38	6	
12	0	0	0	0	513	511	0	159	38	6	
13	0	0	0	0	516	512	0	168	38	7	
14	0	0	0	0	512	511	0	280	38	7	
15	0	0	0	0	504	511	0	463	38	8	
0	0	0	0	0	507	511	0	634	38	8	
1	0	0	0	0	508	511	0	727	38	8	
2	0	0	0	0	512	511	0	781	38	8	
3	0	0	0	0	513	511	0	784	38	7	
4	0	0	0	0	509	510	0	718	38	7	
5	0	0	0	0	502	509	0	619	38	6	
6	0	0	0	0	513	509	0	583	38	6	
7	0	0	0	0	504	509	0	520	38	7	
8	0	0	0	0	504	510	0	349	38	7	
9	0	0	0	0	507	511	0	119	38	8	
10	0	0	0	0	503	510	0	0	38	8	
11	0	0	0	0	503	510	0	0	38	8	
12	0	0	0	0	519	510	0	0	38	8	
13	0	0	0	0	515	510	0	128	38	7	
14	0	0	0	0	510	510	0	322	38	7	
15	0	0	0	0	505	511	0	511	38	6	
0	0	0	0	0	516	511	0	658	38	6	
1	0	0	0	0	515	511	0	687	38	7	
2	0	0	0	0	514	511	0	733	38	7	
3	0	0	0	0	504	511	0	828	38	8	
4	0	0	0	0	508	511	0	896	38	8	
5	0	0	0	0	510	511	0	912	38	8	
6	0	0	0	0	510	511	0	932	38	8	
7	0	0	0	0	518	511	0	998	38	7	
8	0	0	0	0	512	510	0	1018	38	7	
9	0	0	0	0	506	510	0	1018	38	6	
10	0	0	0	0	504	509	0	1018	38	6	
11	0	0	0	0	502	510	0	1018	38	7	
12	0	0	0	0	508	510	0	1018	38	7	
13	0	0	0	0	506	511	0	994	38	8	
14	0	0	0	0	507	511	0	1006	38	8	
15	0	0	0	0	507	511	0	1000	38	8	
0	0	0	0	0	514	511	0	952	38	8	
1	0	0	0	0	512	512	0	860	38	7	
2	0	0	0	0	510	512	0	814	38	7	
3	0	0	0	0	509	512	0	808	38	6	
4	0	0	0	0	512	512	0	720	38	6	
5	0	0	0	0	510	512	0	588	38	7	
6	0	0	0	0	508	511	0	602	38	7	
7	0	0	0	0	514	511	0	736	38	8	
8	0	0	0	0	510	511	0	871	38	8	
9	0	0	0	0	512	511	0	960	37	8	
10	0	0	0	0	524	511	0	1015	38	8	
11	0	0	0	0	513	510	0	1018	38	7	
12	0	0	0	0	512	509	0	1018	38	7	
13	0	0	0	0	505	509	0	1018	38	6	
14	0	0	0	0	511	509	0	1018	38	6	
15	0	0	0	0	504	509	0	1018	38	7	
0	0	0	0	0	499	510	0	987	38	7	
1	0	0	0	0	501	510	0	992	38	8	
2	0	0	0	0	503	510	0	951	38	8	
3	0	0	0	0	505	511	0	860	38	8	
4	0	0	0	0	508	511	0	780	38	8	
5	0	0	0	0	511	511	0	742	38	7	
6	0	0	0	0	515	511	0	737	38	7	
7	0	0	0	0	515	510	0	729	38	6	
8	0	0	0	0	508	511	0	724	38	6	
9	0	0	0	0	508	511	0	732	38	7	
10	0	0	0	0	513	511	0	734	38	7	
11	0	0	0	0	518	511	0	735	38	8	
12	0	0	0	0	509	511	0	726	38	8	
13	0	0	0	0	505	511	0	723	38	8	
14	0	0	0	0	509	512	0	729	38	8	
15	0	0	0	0	510	511	0	754	38	7	
0	0	0	0	0	510	512	0	794	38	7	
1	0	0	0	0	512	511	0	855	38	6	
2	0	0	0	0	502	511	0	867	38	6	
3	0	0	0	0	511	511	0	885	38	7	
4	0	0	0	0	502	511	0	903	38	7	
5	0	0	0	0	501	511	0	878	38	8	
6	0	0	0	0	511	510	0	811	38	8	
7	0	0	0	0	508	511	0	722	38	9	
8	0	0	0	0	513	512	0	652	38	8	
9	0	0	0	0	511	511	0	629	38	7	
10	0	0	0	0	511	511	0	664	38	7	
11	0	0	0	0	512	511	0	734	38	6	
12	0	0	0	0	515	511	0	717	38	6	
13	0	0	0	0	512	511	0	663	38	7	
14	0	0	0	0	510	511	0	609	38	7	
15	0	0	0	0	511	511	0	590	38	8	
0	0	0	0	0	511	512	0	595	38	8	
1	0	0	0	0	506	512	0	601	38	9	
2	0	0	0	0	512	512	0	612	38	8	
3	0	0	0	0	511	512	0	655	38	7	
4	0	0	0	0	511	511	0	723	38	7	
5	0	0	0	0	511	510	0	795	38	6	
6	0	0	0	0	504	511	0	853	38	6	
7	0	0	0	0	508	510	0	830	38	7	
8	0	0	0	0	505	510	0	779	38	7	
9	0	0	0	0	506	510	0	675	38	8	
10	0	0	0	0	503	510	0	593	38	8	
11	0	0	0	0	502	511	0	542	38	9	
12	0	0	0	0	511	510	0	534	38	8	
13	0	0	0	0	512	511	0	549	38	7	
14	0	0	0	0	513	511	0	557	38	7	
15	0	0	0	0	515	510	0	604	38	7	
0	0	0	0	0	514	510	0	697	38	6	
1	0	0	0	0	510	511	0	711	38	7	
2	0	0	0	0	508	511	0	692	38	7	
3	0	0	0	0	499	511	0	699	38	8	
4	0	0	0	0	507	510	0	678	38	8	
5	0	0	0	0	508	511	0	716	38	9	
6	0	0	0	0	516	511	0	767	38	8	
7	0	0	0	0	513	510	0	835	38	7	
8	0	0	0	0	512	510	0	892	38	7	
9	0	0	0	0	513	509	0	900	38	7	
10	0	0	0	0	499	509	0	899	38	6	
11	0	0	0	0	504	509	0	919	38	7	
12	0	0	0	0	504	508	0	976	38	7	
13	0	0	0	0	511	508	0	1018	38	8	
14	0	0	0	0	510	508	0	1018	38	8	
15	0	0	0	0	500	509	0	882	38	9	
0	0	0	0	0	515	509	0	705	38	8	
1	0	0	0	0	515	510	0	632	38	8	
2	0	0	0	0	514	510	0	634	38	7	
3	0	0	0	0	511	510	0	669	38	7	
4	0	0	0	0	513	510	0	727	38	6	
5	0	0	0	0	510	511	0	769	38	7	
6	0	0	0	0	506	510	0	784	38	7	
7	0	0	0	0	515	512	0	787	38	8	
8	0	0	0	0	517	513	0	783	38	8	
9	0	0	0	0	504	514	0	791	38	9	
10	0	0	0	0	517	513	0	798	38	8	
11	0	0	0	0	507	513	0	797	38	8	
12	0	0	0	0	510	512	0	819	38	7	
13	0	0	0	0	508	512	0	892	38	7	
14	0	0	0	0	506	511	0	947	38	7	
15	0	0	0	0	510	511	0	926	38	7	
0	0	0	0	0	501	510	0	867	38	7	
1	0	0	0	0	507	511	0	825	38	8	
2	0	0	0	0	508	510	0	806	38	8	
3	0	0	0	0	504	511	0	720	38	9	
4	0	0	0	0	509	511	0	609	38	8	
5	0	0	0	0	514	511	0	536	38	8	
6	0	0	0	0	515	511	0	491	38	7	
7	0	0	0	0	509	510	0	494	38	7	
8	0	0	0	0	509	510	0	529	38	7	
9	0	0	0	0	512	510	0	521	38	7	
10	0	0	0	0	508	509	0	442	38	7	
11	0	0	0	0	510	509	0	443	38	8	
12	0	0	0	0	507	509	0	504	38	9	
13	0	0	0	0	506	508	0	491	38	9	
14	0	0	0	0	516	509	0	480	38	8	
15	0	0	0	0	516	509	0	561	38	8	
0	0	0	0	0	504	509	0	671	38	7	
1	0	0	0	0	513	509	0	778	38	7	
2	0	0	0	0	514	508	0	795	38	7	
3	0	0	0	0	512	509	0	723	38	7	
4	0	0	0	0	508	508	0	692	38	7	
5	0	0	0	0	499	508	0	721	38	8	
6	0	0	0	0	508	508	0	726	38	9	
7	0	0	0	0	506	508	0	689	38	9	
8	0	0	0	0	511	508	0	579	38	8	
9	0	0	0	0	515	509	0	453	38	8	
10	0	0	0	0	515	509	0	386	38	7	
11	0	0	0	0	511	509	0	308	38	7	
12	0	0	0	0	510	509	0	198	38	7	
13	0	0	0	0	512	510	0	146	38	7	
14	0	0	0	0	505	510	0	232	38	7	
15	0	0	0	0	506	510	0	366	38	8	
0	0	0	0	0	518	510	0	464	38	9	
1	0	0	0	0	515	510	0	531	38	9	
2	0	0	0	0	511	510	0	626	38	8	
3	0	0	0	0	510	510	0	799	38	8	
4	0	0	0	0	511	509	0	908	38	7	
5	0	0	0	0	515	508	0	874	38	7	
6	0	0	0	0	507	508	0	856	38	7	
7	0	0	0	0	508	508	0	874	38	7	
8	0	0	0	0	509	508	0	824	38	8	
9	0	0	0	0	508	508	0	760	38	8	
10	0	0	0	0	504	509	0	736	38	9	
11	0	0	0	0	506	508	0	705	38	9	
12	0	0	0	0	512	508	0	543	38	8	
13	0	0	0	0	517	508	0	305	38	8	
14	0	0	0	0	509	508	0	127	38	7	
15	0	0	0	0	506	507	0	104	38	7	
0	0	0	0	0	514	507	0	154	38	7	
1	0	0	0	0	509	507	0	183	38	7	
2	0	0	0	0	508	508	0	212	38	8	
3	0	0	0	0	511	509	0	239	38	8	
4	0	0	0	0	511	510	0	267	38	9	
5	0	0	0	0	516	510	0	382	38	9	
6	0	0	0	0	508	510	0	595	38	8	
7	0	0	0	0	509	510	0	694	38	8	
8	0	0	0	0	504	510	0	734	38	7	
9	0	0	0	0	510	510	0	671	38	7	
10	0	0	0	0	511	510	0	617	38	7	
11	0	0	0	0	513	510	0	649	38	7	
12	0	0	0	0	502	510	0	807	38	8	
13	0	0	0	0	508	510	0	974	38	8	
14	0	0	0	0	503	510	0	954	38	9	
15	0	0	0	0	504	511	0	790	38	9	
0	0	0	0	0	510	511	0	665	38	8	
1	0	0	0	0	518	511	0	585	38	8	
2	0	0	0	0	510	510	0	528	38	7	
3	0	0	0	0	512	510	0	466	38	7	
4	0	0	0	0	510	511	0	421	38	7	
5	0	0	0	0	506	510	0	392	38	7	
6	0	0	0	0	503	511	0	417	38	8	
7	0	0	0	0	509	511	0	482	38	8	
8	0	0	0	0	505	510	0	522	38	9	
9	0	0	0	0	508	510	0	543	38	9	
10	0	0	0	0	519	510	0	561	38	8	
11	0	0	0	0	515	511	0	585	38	8	
12	0	0	0	0	510	511	0	609	38	7	
13	0	0	0	0	508	510	0	628	38	7	
14	0	0	0	0	503	510	0	650	38	7	
15	0	0	0	0	504	511	0	668	38	7	
0	0	0	0	0	506	511	0	659	38	7	
1	0	0	0	0	504	512	0	623	38	8	
2	0	0	0	0	504	512	0	563	38	9	
3	0	0	0	0	513	512	0	477	38	9	
4	0	0	0	0	510	512	0	385	38	8	
5	0	0	0	0	507	511	0	330	38	8	
6	0	0	0	0	512	511	0	329	38	7	
7	0	0	0	0	513	510	0	340	38	7	
8	0	0	0	0	512	510	0	326	38	7	
9	0	0	0	0	505	510	0	316	38	7	
10	0	0	0	0	502	510	0	323	38	8	
11	0	0	0	0	511	510	0	372	38	8	
12	0	0	0	0	513	510	0	422	38	9	
13	0	0	0	0	505	510	0	461	38	9	
14	0	0	0	0	515	510	0	504	38	8	
15	0	0	0	0	518	510	0	556	38	8	
0	0	0	0	0	511	510	0	616	38	7	
1	0	0	0	0	505	511	0	668	38	7	
2	0	0	0	0	500	511	0	699	38	7	
3	0	0	0	0	508	510	0	693	38	7	
4	0	0	0	0	507	510	0	652	38	8	
5	0	0	0	0	504	510	0	588	38	8	
6	0	0	0	0	506	510	0	516	38	9	
7	0	0	0	0	507	510	0	452	38	9	
8	0	0	0	0	516	510	0	409	38	8	
9	0	0	0	0	509	511	0	368	38	8	
10	0	0	0	0	509	511	0	352	38	7	
11	0	0	0	0	506	511	0	350	38	7	
12	0	0	0	0	506	511	0	356	38	7	
13	0	0	0	0	510	511	0	368	38	7	
14	0	0	0	0	516	510	0	384	38	7	
15	0	0	0	0	505	511	0	407	38	8	
0	0	0	0	0	509	511	0	430	38	9	
1	0	0	0	0	510	511	0	447	38	9	
2	0	0	0	0	516	511	0	475	38	8	
3	0	0	0	0	516	510	0	516	38	8	
4	0	0	0	0	511	510	0	570	38	7	
5	0	0	0	0	504	509	0	632	38	7	
6	0	0	0	0	502	509	0	690	38	7	
7	0	0	0	0	507	509	0	726	38	7	
8	0	0	0	0	508	509	0	739	38	7	
9	0	0	0	0	500	509	0	726	38	8	
10	0	0	0	0	513	509	0	688	38	9	
11	0	0	0	0	510	510	0	638	38	9	
12	0	0	0	0	515	510	0	599	38	8	
13	0	0	0	0	514	510	0	576	38	8	
14	0	0	0	0	515	510	0	560	38	7	
15	0	0	0	0	508	510	0	548	38	7	
0	0	0	0	0	516	510	0	543	38	7	
1	0	0	0	0	502	510	0	545	38	7	
2	0	0	0	0	510	510	0	548	38	7	
3	0	0	0	0	517	511	0	548	38	8	
4	0	0	0	0	512	509	0	552	38	8	
5	0	0	0	0	506	509	0	562	38	9	
6	0	0	0	0	510	509	0	584	38	8	
7	0	0	0	0	520	509	0	620	38	8	
8	0	0	0	0	510	509	0	663	38	7	
9	0	0	0	0	514	508	0	705	38	7	
10	0	0	0	0	501	509	0	744	38	7	
11	0	0	0	0	506	509	0	771	38	7	
12	0	0	0	0	514	509	0	780	38	7	
13	0	0	0	0	507	509	0	764	38	8	
14	0	0	0	0	506	510	0	720	38	8	
15	0	0	0	0	506	510	0	661	38	9	
0	0	0	0	0	513	511	0	600	38	8	
1	0	0	0	0	515	511	0	560	38	8	
2	0	0	0	0	511	511	0	542	38	7	
3	0	0	0	0	516	511	0	540	38	7	
4	0	0	0	0	515	511	0	550	38	6	
5	0	0	0	0	509	512	0	563	38	7	
6	0	0	0	0	510	512	0	584	38	7	
7	0	0	0	0	509	512	0	606	38	8	
8	0	0	0	0	513	511	0	629	38	8	
9	0	0	0	0	511	512	0	657	38	9	
10	0	0	0	0	510	512	0	683	38	8	
11	0	0	0	0	519	511	0	713	38	8	
12	0	0	0	0	502	511	0	758	38	7	
13	0	0	0	0	506	510	0	798	38	7	
14	0	0	0	0	499	509	0	828	38	7	
15	0	0	0	0	510	509	0	854	38	7	
0	0	0	0	0	505	509	0	866	38	7	
1	0	0	0	0	505	510	0	844	38	8	
2	0	0	0	0	507	510	0	783	38	8	
3	0	0	0	0	509	511	0	705	38	9	
4	0	0	0	0	509	511	0	633	38	8	
5	0	0	0	0	512	512	0	600	38	8	
6	0	0	0	0	515	512	0	598	38	7	
7	0	0	0	0	517	513	0	611	38	7	
8	0	0	0	0	511	512	0	640	38	6	
9	0	0	0	0	505	513	0	668	38	7	
10	0	0	0	0	517	513	0	694	38	7	
11	0	0	0	0	509	513	0	716	38	8	
12	0	0	0	0	506	512	0	736	38	8	
13	0	0	0	0	514	512	0	743	38	9	
14	0	0	0	0	514	512	0	758	38	8	
15	0	0	0	0	505	511	0	787	38	8	
0	0	0	0	0	515	511	0	802	38	7	
1	0	0	0	0	504	511	0	819	38	7	
2	0	0	0	0	501	511	0	839	38	7	
3	0	0	0	0	502	511	0	865	38	7	
4	0	0	0	0	503	511	0	871	38	7	
5	0	0	0	0	501	511	0	839	38	8	
6	0	0	0	0	507	511	0	782	38	8	
7	0	0	0	0	515	511	0	706	38	9	
8	0	0	0	0	515	511	0	646	38	8	
9	0	0	0	0	510	511	0	599	38	8	
10	0	0	0	0	515	512	0	541	38	7	
11	0	0	0	0	507	511	0	481	38	7	
12	0	0	0	0	511	511	0	453	38	6	
13	0	0	0	0	515	511	0	452	38	7	
14	0	0	0	0	510	511	0	477	38	7	
15	0	0	0	0	512	511	0	512	38	8	
0	0	0	0	0	506	512	0	551	38	8	
1	0	0	0	0	515	512	0	589	38	9	
2	0	0	0	0	513	512	0	617	38	8	
3	0	0	0	0	511	512	0	635	38	8	
4	0	0	0	0	518	512	0	675	38	7	
5	0	0	0	0	505	511	0	722	38	7	
6	0	0	0	0	500	511	0	763	38	6	
7	0	0	0	0	509	511	0	795	38	7	
8	0	0	0	0	504	511	0	819	38	7	
9	0	0	0	0	506	511	0	817	38	8	
10	0	0	0	0	508	510	0	798	38	8	
11	0	0	0	0	509	510	0	741	38	9	
12	0	0	0	0	508	510	0	669	38	8	
13	0	0	0	0	504	510	0	641	38	8	
14	0	0	0	0	515	510	0	663	38	7	
15	0	0	0	0	509	509	0	679	38	7	
0	0	0	0	0	513	509	0	652	38	6	
1	0	0	0	0	510	510	0	633	38	7	
2	0	0	0	0	513	510	0	618	38	7	
3	0	0	0	0	519	510	0	615	38	8	
4	0	0	0	0	510	510	0	643	38	8	
5	0	0	0	0	508	510	0	667	38	9	
6	0	0	0	0	515	510	0	685	38	8	
7	0	0	0	0	502	510	0	704	38	8	
8	0	0	0	0	511	510	0	730	38	7	
9	0	0	0	0	509	510	0	772	38	7	
10	0	0	0	0	511	511	0	801	38	6	
11	0	0	0	0	509	511	0	824	38	7	
12	0	0	0	0	508	512	0	822	38	7	
13	0	0	0	0	503	512	0	818	38	8	
14	0	0	0	0	508	512	0	817	38	8	
15	0	0	0	0	507	512	0	786	38	9	
0	0	0	0	0	509	512	0	748	38	8	
1	0	0	0	0	510	511	0	682	38	8	
2	0	0	0	0	515	512	0	635	38	7	
3	0	0	0	0	519	511	0	671	38	7	
4	0	0	0	0	512	511	0	735	38	6	
5	0	0	0	0	509	511	0	803	38	7	
6	0	0	0	0	508	511	0	869	38	7	
7	0	0	0	0	513	512	0	883	38	8	
8	0	0	0	0	511	512	0	837	38	8	
9	0	0	0	0	511	512	0	784	38	9	
10	0	0	0	0	510	512	0	752	38	8	
11	0	0	0	0	508	512	0	747	38	7	
12	0	0	0	0	509	512	0	775	38	7	
13	0	0	0	0	509	511	0	813	38	7	
14	0	0	0	0	504	511	0	876	38	6	
15	0	0	0	0	507	511	0	938	38	7	
0	0	0	0	0	502	510	0	964	38	7	
1	0	0	0	0	507	510	0	955	38	8	
2	0	0	0	0	510	510	0	936	38	8	
3	0	0	0	0	512	510	0	893	38	9	
4	0	0	0	0	505	510	0	839	38	8	
5	0	0	0	0	506	511	0	795	38	8	
6	0	0	0	0	510	511	0	713	38	7	
7	0	0	0	0	515	512	0	647	38	7	
8	0	0	0	0	506	512	0	670	38	6	
9	0	0	0	0	513	513	0	702	38	7	
10	0	0	0	0	518	512	0	679	38	7	
11	0	0	0	0	509	513	0	688	38	8	
12	0	0	0	0	510	513	0	751	38	8	
13	0	0	0	0	508	513	0	815	38	9	
14	0	0	0	0	516	513	0	859	38	8	
15	0	0	0	0	510	513	0	893	38	7	
0	0	0	0	0	510	512	0	947	38	7	
1	0	0	0	0	503	511	0	1001	38	7	
2	0	0	0	0	503	511	0	1018	38	6	
3	0	0	0	0	509	511	0	1018	38	7	
4	0	0	0	0	503	510	0	1018	38	7	
5	0	0	0	0	508	511	0	1018	38	8	
6	0	0	0	0	513	511	0	1018	38	8	
7	0	0	0	0	508	511	0	1018	38	9	
8	0	0	0	0	509	512	0	871	38	8	
9	0	0	0	0	517	512	0	802	38	7	
10	0	0	0	0	515	512	0	761	38	7	
11	0	0	0	0	510	512	0	736	38	7	
12	0	0	0	0	508	511	0	722	38	6	
13	0	0	0	0	508	511	0	713	38	7	
14	0	0	0	0	511	511	0	716	38	7	
15	0	0	0	0	507	511	0	728	38	8	
0	0	0	0	0	509	511	0	738	38	8	
1	0	0	0	0	514	511	0	752	38	9	
2	0	0	0	0	516	511	0	774	38	8	
3	0	0	0	0	511	510	0	817	38	7	
4	0	0	0	0	511	510	0	882	38	7	
5	0	0	0	0	504	511	0	949	38	7	
6	0	0	0	0	513	511	0	998	38	6	
7	0	0	0	0	504	511	0	1018	38	7	
8	0	0	0	0	499	511	0	1018	38	7	
9	0	0	0	0	506	511	0	1018	38	8	
10	0	0	0	0	512	511	0	973	38	8	
11	0	0	0	0	508	512	0	896	38	9	
12	0	0	0	0	514	512	0	813	38	8	
13	0	0	0	0	508	512	0	750	38	7	
14	0	0	0	0	519	512	0	713	38	7	
15	0	0	0	0	509	512	0	700	38	7	
0	0	0	0	0	514	512	0	717	38	6	
1	0	0	0	0	513	512	0	736	38	7	
2	0	0	0	0	509	511	0	751	38	7	
3	0	0	0	0	511	511	0	771	38	8	
4	0	0	0	0	499	511	0	793	38	8	
5	0	0	0	0	508	511	0	812	38	9	
6	0	0	0	0	513	511	0	819	38	8	
7	0	0	0	0	518	510	0	827	38	7	
8	0	0	0	0	514	511	0	850	38	7	
9	0	0	0	0	500	511	0	878	38	7	
10	0	0	0	0	505	511	0	891	38	6	
11	0	0	0	0	508	511	0	889	38	7	
12	0	0	0	0	503	512	0	896	38	7	
13	0	0	0	0	507	512	0	846	38	8	
14	0	0	0	0	511	513	0	794	38	8	
15	0	0	0	0	504	512	0	728	38	9	
0	0	0	0	0	512	512	0	667	38	8	
1	0	0	0	0	509	512	0	628	38	7	
2	0	0	0	0	514	512	0	618	38	7	
3	0	0	0	0	512	511	0	624	38	6	
4	0	0	0	0	512	511	0	632	38	6	
5	0	0	0	0	512	513	0	640	38	7	
6	0	0	0	0	505	512	0	653	38	7	
7	0	0	0	0	509	513	0	661	38	8	
8	0	0	0	0	508	512	0	672	38	8	
9	0	0	0	0	505	512	0	684	38	9	
10	0	0	0	0	512	513	0	706	38	8	
11	0	0	0	0	512	513	0	745	38	7	
12	0	0	0	0	508	513	0	784	38	7	
13	0	0	0	0	511	512	0	820	38	7	
14	0	0	0	0	510	512	0	841	38	6	
15	0	0	0	0	506	512	0	837	38	7	
0	0	0	0	0	508	511	0	819	38	7	
1	0	0	0	0	504	511	0	780	38	8	
2	0	0	0	0	511	511	0	725	38	8	
3	0	0	0	0	513	511	0	653	38	9	
4	0	0	0	0	513	512	0	584	38	8	
5	0	0	0	0	510	512	0	543	38	7	
6	0	0	0	0	504	513	0	528	38	7	
7	0	0	0	0	504	512	0	539	38	6	
8	0	0	0	0	509	512	0	573	38	6	
9	0	0	0	0	512	512	0	608	38	7	
10	0	0	0	0	508	512	0	659	38	7	
11	0	0	0	0	508	512	0	735	38	8	
12	0	0	0	0	511	511	0	788	38	8	
13	0	0	0	0	511	511	0	812	38	9	
14	0	0	0	0	513	511	0	826	38	8	
15	0	0	0	0	517	510	0	860	38	7	
0	0	0	0	0	508	510	0	914	38	7	
1	0	0	0	0	504	508	0	962	38	6	
2	0	0	0	0	503	510	0	1005	38	6	
3	0	0	0	0	517	511	0	1018	38	7	
4	0	0	0	0	510	511	0	1018	38	7	
5	0	0	0	0	500	512	0	1018	38	8	
6	0	0	0	0	501	512	0	1018	38	8	
7	0	0	0	0	505	512	0	893	38	9	
8	0	0	0	0	510	512	0	785	38	8	
9	0	0	0	0	514	512	0	677	38	7	
10	0	0	0	0	509	513	0	604	38	7	
11	0	0	0	0	511	513	0	600	38	7	
12	0	0	0	0	516	513	0	647	38	6	
13	0	0	0	0	510	513	0	670	38	7	
14	0	0	0	0	510	513	0	674	38	7	
15	0	0	0	0	506	513	0	683	38	8	
0	0	0	0	0	505	512	0	719	38	8	
1	0	0	0	0	503	512	0	755	38	9	
2	0	0	0	0	513	512	0	756	38	8	
3	0	0	0	0	519	511	0	801	38	7	
4	0	0	0	0	516	512	0	865	38	7	
5	0	0	0	0	502	510	0	930	38	7	
6	0	0	0	0	507	511	0	999	38	6	
7	0	0	0	0	504	511	0	1018	38	7	
8	0	0	0	0	506	511	0	1018	38	7	
9	0	0	0	0	508	510	0	1018	38	8	
10	0	0	0	0	510	510	0	843	38	8	
11	0	0	0	0	504	510	0	708	38	9	
12	0	0	0	0	510	511	0	645	38	8	
13	0	0	0	0	511	511	0	657	38	7	
14	0	0	0	0	506	512	0	637	38	7	
15	0	0	0	0	517	512	0	533	38	6	
0	0	0	0	0	514	511	0	466	38	6	
1	0	0	0	0	508	512	0	436	38	7	
2	0	0	0	0	509	512	0	426	38	7	
3	0	0	0	0	509	512	0	472	38	8	
4	0	0	0	0	512	513	0	519	38	8	
5	0	0	0	0	504	513	0	503	38	9	
6	0	0	0	0	516	513	0	456	38	8	
7	0	0	0	0	513	512	0	503	38	7	
8	0	0	0	0	510	512	0	633	38	7	
9	0	0	0	0	506	513	0	777	38	7	
10	0	0	0	0	508	513	0	893	38	6	
11	0	0	0	0	512	512	0	938	38	7	
12	0	0	0	0	505	512	0	906	38	7	
13	0	0	0	0	507	512	0	867	38	8	
14	0	0	0	0	498	512	0	842	38	8	
15	0	0	0	0	514	512	0	768	38	9	
0	0	0	0	0	511	512	0	670	38	8	
1	0	0	0	0	513	512	0	626	38	7	
2	0	0	0	0	512	512	0	625	38	7	
3	0	0	0	0	518	512	0	625	38	7	
4	0	0	0	0	511	512	0	636	38	6	
5	0	0	0	0	514	513	0	659	38	7	
6	0	0	0	0	513	513	0	695	38	7	
7	0	0	0	0	509	513	0	741	38	8	
8	0	0	0	0	501	513	0	768	38	8	
9	0	0	0	0	508	513	0	764	38	9	
10	0	0	0	0	516	512	0	769	38	8	
11	0	0	0	0	513	512	0	787	38	7	
12	0	0	0	0	508	512	0	786	38	7	
13	0	0	0	0	508	511	0	761	38	7	
14	0	0	0	0	507	511	0	759	38	6	
15	0	0	0	0	519	511	0	769	38	7	
0	0	0	0	0	511	511	0	748	38	7	
1	0	0	0	0	503	511	0	701	38	8	
2	0	0	0	0	503	512	0	665	38	8	
3	0	0	0	0	502	512	0	627	38	9	
4	0	0	0	0	508	513	0	577	38	8	
5	0	0	0	0	506	512	0	530	38	7	
6	0	0	0	0	510	512	0	490	38	7	
7	0	0	0	0	511	511	0	485	38	7	
8	0	0	0	0	510	511	0	514	38	6	
9	0	0	0	0	514	511	0	547	38	7	
10	0	0	0	0	517	511	0	611	38	7	
11	0	0	0	0	504	512	0	651	38	8	
12	0	0	0	0	512	512	0	640	38	8	
13	0	0	0	0	510	512	0	640	38	9	
14	0	0	0	0	516	511	0	628	38	8	
15	0	0	0	0	514	511	0	653	38	7	
0	0	0	0	0	510	510	0	726	38	7	
1	0	0	0	0	513	510	0	794	38	7	
2	0	0	0	0	509	510	0	834	38	6	
3	0	0	0	0	513	510	0	884	38	7	
4	0	0	0	0	501	510	0	946	38	7	
5	0	0	0	0	507	510	0	933	38	8	
6	0	0	0	0	508	509	0	864	38	8	
7	0	0	0	0	498	509	0	785	38	9	
8	0	0	0	0	509	508	0	700	38	8	
9	0	0	0	0	504	508	0	623	38	7	
10	0	0	0	0	516	508	0	591	38	7	
11	0	0	0	0	513	509	0	580	38	7	
12	0	0	0	0	508	509	0	577	38	6	
13	0	0	0	0	510	509	0	591	38	7	
14	0	0	0	0	505	509	0	600	38	7	
15	0	0	0	0	506	510	0	624	38	8	
0	0	0	0	0	512	510	0	664	38	8	
1	0	0	0	0	512	510	0	688	38	9	
2	0	0	0	0	520	511	0	715	38	8	
3	0	0	0	0	511	510	0	743	38	8	
4	0	0	0	0	515	511	0	768	38	7	
5	0	0	0	0	503	510	0	778	38	7	
6	0	0	0	0	502	510	0	779	38	6	
7	0	0	0	0	507	510	0	756	38	7	
8	0	0	0	0	510	510	0	704	38	7	
9	0	0	0	0	505	510	0	635	38	8	
10	0	0	0	0	505	510	0	563	38	8	
11	0	0	0	0	505	510	0	504	38	9	
12	0	0	0	0	506	510	0	484	38	8	
13	0	0	0	0	510	511	0	519	38	8	
14	0	0	0	0	508	511	0	562	38	7	
15	0	0	0	0	519	511	0	580	38	7	
0	0	0	0	0	504	511	0	563	38	6	
1	0	0	0	0	513	512	0	529	38	7	
2	0	0	0	0	516	512	0	515	38	7	
3	0	0	0	0	513	512	0	494	38	8	
4	0	0	0	0	512	512	0	492	38	8	
5	0	0	0	0	511	512	0	551	38	9	
6	0	0	0	0	514	511	0	651	38	8	
7	0	0	0	0	504	511	0	750	38	8	
8	0	0	0	0	506	510	0	825	38	7	
9	0	0	0	0	510	510	0	886	38	7	
10	0	0	0	0	515	510	0	927	38	6	
11	0	0	0	0	512	510	0	912	38	7	
12	0	0	0	0	502	510	0	857	38	7	
13	0	0	0	0	502	510	0	788	38	8	
14	0	0	0	0	505	510	0	713	38	8	
15	0	0	0	0	508	511	0	628	38	9	
0	0	0	0	0	511	511	0	553	38	8	
1	0	0	0	0	517	511	0	504	38	8	
2	0	0	0	0	514	511	0	484	38	7	
3	0	0	0	0	507	511	0	479	38	7	
4	0	0	0	0	512	511	0	494	38	6	
5	0	0	0	0	499	512	0	527	38	7	
6	0	0	0	0	509	511	0	542	38	7	
7	0	0	0	0	507	512	0	543	38	8	
8	0	0	0	0	511	512	0	574	38	8	
9	0	0	0	0	510	511	0	600	38	9	
10	0	0	0	0	512	511	0	594	38	8	
11	0	0	0	0	515	510	0	589	38	8	
12	0	0	0	0	516	511	0	622	38	7	
13	0	0	0	0	506	511	0	691	38	7	
14	0	0	0	0	500	511	0	723	38	6	
15	0	0	0	0	504	511	0	718	38	7	
0	0	0	0	0	508	510	0	680	38	7	
1	0	0	0	0	511	510	0	661	38	8	
2	0	0	0	0	504	510	0	615	38	8	
3	0	0	0	0	504	510	0	533	38	9	
4	0	0	0	0	514	510	0	487	38	8	
5	0	0	0	0	512	510	0	462	38	8	
6	0	0	0	0	507	510	0	441	38	7	
7	0	0	0	0	505	510	0	428	38	7	
8	0	0	0	0	512	509	0	433	38	6	
9	0	0	0	0	518	510	0	415	38	7	
10	0	0	0	0	518	509	0	415	38	7	
11	0	0	0	0	513	510	0	489	38	8	
12	0	0	0	0	514	509	0	567	38	8	
13	0	0	0	0	507	509	0	621	38	9	
14	0	0	0	0	508	511	0	633	38	8	
15	0	0	0	0	510	510	0	645	38	8	
0	0	0	0	0	515	510	0	679	38	7	
1	0	0	0	0	511	511	0	706	38	7	
2	0	0	0	0	508	511	0	709	38	6	
3	0	0	0	0	504	510	0	699	38	7	
4	0	0	0	0	512	511	0	666	38	7	
5	0	0	0	0	506	511	0	612	38	8	
6	0	0	0	0	507	511	0	547	38	8	
7	0	0	0	0	502	511	0	459	38	9	
8	0	0	0	0	511	511	0	390	38	8	
9	0	0	0	0	517	511	0	370	38	8	
10	0	0	0	0	508	511	0	407	38	7	
11	0	0	0	0	505	511	0	457	38	7	
12	0	0	0	0	507	511	0	496	38	6	
13	0	0	0	0	513	510	0	519	38	7	
14	0	0	0	0	509	510	0	521	38	7	
15	0	0	0	0	522	510	0	522	38	8	
0	0	0	0	0	504	509	0	535	38	8	
1	0	0	0	0	509	509	0	562	38	9	
2	0	0	0	0	515	509	0	595	38	8	
3	0	0	0	0	506	509	0	660	38	8	
4	0	0	0	0	511	509	0	722	38	7	
5	0	0	0	0	512	509	0	780	38	7	
6	0	0	0	0	506	509	0	791	38	6	
7	0	0	0	0	515	509	0	772	38	7	
8	0	0	0	0	501	509	0	741	38	7	
9	0	0	0	0	504	510	0	698	38	8	
10	0	0	0	0	504	509	0	641	38	8	
11	0	0	0	0	508	510	0	539	38	9	
12	0	0	0	0	506	510	0	447	38	8	
13	0	0	0	0	509	510	0	400	38	8	
14	0	0	0	0	514	510	0	372	38	7	
15	0	0	0	0	515	509	0	346	38	7	
0	0	0	0	0	502	509	0	333	38	6	
1	0	0	0	0	519	508	0	338	38	7	
2	0	0	0	0	504	508	0	350	38	7	
3	0	0	0	0	517	508	0	334	38	8	
4	0	0	0	0	511	508	0	321	38	8	
5	0	0	0	0	511	508	0	352	38	9	
6	0	0	0	0	516	507	0	427	38	8	
7	0	0	0	0	516	508	0	523	38	8	
8	0	0	0	0	501	508	0	606	38	7	
9	0	0	0	0	508	508	0	665	38	7	
10	0	0	0	0	501	508	0	697	38	6	
11	0	0	0	0	508	508	0	686	38	7	
12	0	0	0	0	507	507	0	664	38	7	
13	0	0	0	0	508	508	0	633	38	8	
14	0	0	0	0	510	508	0	568	38	8	
15	0	0	0	0	502	508	0	494	38	9	
0	0	0	0	0	506	509	0	440	38	8	
1	0	0	0	0	515	509	0	432	38	8	
2	0	0	0	0	514	510	0	447	38	7	
3	0	0	0	0	517	510	0	449	38	7	
4	0	0	0	0	504	510	0	448	38	6	
5	0	0	0	0	510	510	0	453	38	7	
6	0	0	0	0	515	510	0	448	38	7	
7	0	0	0	0	511	510	0	428	38	8	
8	0	0	0	0	504	509	0	445	38	8	
9	0	0	0	0	511	509	0	492	38	9	
10	0	0	0	0	516	509	0	515	38	8	
11	0	0	0	0	517	509	0	550	38	8	
12	0	0	0	0	512	509	0	578	38	7	
13	0	0	0	0	502	508	0	575	38	7	
14	0	0	0	0	505	508	0	579	38	6	
15	0	0	0	0	510	508	0	583	38	7	
0	0	0	0	0	505	508	0	570	38	7	
1	0	0	0	0	507	508	0	543	38	8	
2	0	0	0	0	498	508	0	476	38	8	
3	0	0	0	0	509	508	0	377	38	9	
4	0	0	0	0	514	508	0	296	38	8	
5	0	0	0	0	511	508	0	222	38	8	
6	0	0	0	0	510	508	0	169	38	7	
7	0	0	0	0	513	507	0	175	38	7	
8	0	0	0	0	511	508	0	219	38	6	
9	0	0	0	0	510	508	0	278	38	7	
10	0	0	0	0	513	508	0	365	38	7	
11	0	0	0	0	513	507	0	438	38	8	
12	0	0	0	0	505	508	0	476	38	8	
13	0	0	0	0	515	508	0	487	38	9	
14	0	0	0	0	507	508	0	494	38	8	
15	0	0	0	0	516	509	0	521	38	8	
0	0	0	0	0	508	509	0	557	38	7	
1	0	0	0	0	512	508	0	598	38	7	
2	0	0	0	0	504	509	0	598	38	6	
3	0	0	0	0	503	509	0	580	38	7	
4	0	0	0	0	495	509	0	560	38	7	
5	0	0	0	0	507	509	0	545	39	8	
6	0	0	0	0	513	509	0	526	38	8	
7	0	0	0	0	508	510	0	455	38	9	
8	0	0	0	0	512	510	0	364	38	8	
9	0	0	0	0	512	510	0	313	38	8	
10	0	0	0	0	514	510	0	310	39	7	
11	0	0	0	0	507	510	0	373	39	7	
12	0	0	0	0	504	510	0	440	39	6	
13	0	0	0	0	509	510	0	460	39	7	
14	0	0	0	0	511	510	0	480	38	7	
15	0	0	0	0	520	511	0	493	39	8	
0	0	0	0	0	510	510	0	465	39	8	
1	0	0	0	0	506	510	0	439	38	9	
2	0	0	0	0	508	510	0	486	39	8	
3	0	0	0	0	517	509	0	633	39	8	
4	0	0	0	0	512	509	0	786	39	7	
5	0	0	0	0	507	508	0	944	39	7	
6	0	0	0	0	502	508	0	1018	39	6	
7	0	0	0	0	510	508	0	1018	39	7	
8	0	0	0	0	509	507	0	902	39	7	
9	0	0	0	0	505	508	0	759	38	8	
10	0	0	0	0	508	508	0	627	39	8	
11	0	0	0	0	508	509	0	508	39	9	
12	0	0	0	0	508	509	0	428	39	8	
13	0	0	0	0	509	510	0	385	39	8	
14	0	0	0	0	509	509	0	352	39	7	
15	0	0	0	0	506	509	0	320	39	7	
0	0	0	0	0	511	509	0	314	39	6	
1	0	0	0	0	512	510	0	372	38	7	
2	0	0	0	0	508	510	0	470	39	7	
3	0	0	0	0	512	510	0	604	39	8	
4	0	0	0	0	507	509	0	692	39	8	
5	0	0	0	0	504	509	0	630	39	9	
6	0	0	0	0	512	510	0	544	39	8	
7	0	0	0	0	511	510	0	518	39	8	
8	0	0	0	0	514	510	0	545	39	7	
9	0	0	0	0	510	509	0	595	38	7	
10	0	0	0	0	508	509	0	643	39	6	
11	0	0	0	0	503	509	0	710	39	7	
12	0	0	0	0	508	510	0	748	39	7	
13	0	0	0	0	504	509	0	700	39	8	
14	0	0	0	0	502	509	0	629	39	8	
15	0	0	0	0	509	510	0	528	39	9	
0	0	0	0	0	505	510	0	451	39	8	
1	0	0	0	0	506	510	0	416	38	8	
2	0	0	0	0	520	510	0	403	39	7	
3	0	0	0	0	509	510	0	413	39	7	
4	0	0	0	0	502	510	0	440	39	6	
5	0	0	0	0	515	509	0	465	39	7	
6	0	0	0	0	513	509	0	487	39	7	
7	0	0	0	0	511	508	0	511	38	8	
8	0	0	0	0	507	509	0	542	39	8	
9	0	0	0	0	510	508	0	581	38	9	
10	0	0	0	0	514	509	0	624	38	8	
11	0	0	0	0	512	509	0	668	38	8	
12	0	0	0	0	504	509	0	703	38	7	
13	0	0	0	0	508	508	0	732	39	7	
14	0	0	0	0	511	508	0	753	38	6	
15	0	0	0	0	506	509	0	761	38	7	
0	0	0	0	0	507	509	0	758	38	7	
1	0	0	0	0	511	509	0	727	38	8	
2	0	0	0	0	504	508	0	566	38	8	
3	0	0	0	0	504	509	0	376	38	9	
4	0	0	0	0	509	508	0	306	38	8	
5	0	0	0	0	505	509	0	337	38	8	
6	0	0	0	0	512	508	0	415	38	7	
7	0	0	0	0	515	509	0	517	38	7	
8	0	0	0	0	513	509	0	593	38	6	
9	0	0	0	0	511	510	0	673	38	7	
10	0	0	0	0	513	510	0	695	38	7	
11	0	0	0	0	511	510	0	668	38	8	
12	0	0	0	0	509	510	0	625	38	8	
13	0	0	0	0	515	511	0	586	38	9	
14	0	0	0	0	511	511	0	567	38	8	
15	0	0	0	0	508	511	0	528	38	8	
0	0	0	0	0	508	511	0	500	38	7	
1	0	0	0	0	511	510	0	566	38	7	
2	0	0	0	0	503	510	0	696	38	6	
3	0	0	0	0	511	510	0	809	38	7	
4	0	0	0	0	501	510	0	896	38	7	
5	0	0	0	0	500	510	0	879	38	8	
6	0	0	0	0	503	510	0	806	38	8	
7	0	0	0	0	513	510	0	711	38	9	
8	0	0	0	0	503	511	0	551	38	8	
9	0	0	0	0	510	511	0	396	38	8	
10	0	0	0	0	517	511	0	305	38	7	
11	0	0	0	0	511	511	0	263	38	7	
12	0	0	0	0	507	511	0	270	38	6	
13	0	0	0	0	506	511	0	301	38	7	
14	0	0	0	0	508	511	0	376	38	7	
15	0	0	0	0	513	510	0	460	38	8	
0	0	0	0	0	508	510	0	464	38	8	
1	0	0	0	0	511	509	0	487	38	9	
2	0	0	0	0	515	509	0	560	38	8	
3	0	0	0	0	514	508	0	710	38	8	
4	0	0	0	0	507	508	0	842	38	7	
5	0	0	0	0	510	509	0	964	38	7	
6	0	0	0	0	504	510	0	1018	38	6	
7	0	0	0	0	504	510	0	1018	38	7	
8	0	0	0	0	508	510	0	955	38	7	
9	0	0	0	0	503	511	0	829	37	8	
10	0	0	0	0	509	510	0	738	38	8	
11	0	0	0	0	502	510	0	612	38	9	
12	0	0	0	0	509	510	0	524	38	8	
13	0	0	0	0	508	510	0	439	38	7	
14	0	0	0	0	508	510	0	388	38	7	
15	0	0	0	0	513	509	0	447	38	7	
0	0	0	0	0	502	510	0	564	38	6	
1	0	0	0	0	515	510	0	670	37	7	
2	0	0	0	0	510	509	0	739	38	7	
3	0	0	0	0	514	509	0	768	37	8	
4	0	0	0	0	513	509	0	783	38	8	
5	0	0	0	0	510	508	0	782	38	9	
6	0	0	0	0	512	508	0	767	37	8	
7	0	0	0	0	519	509	0	762	37	7	
8	0	0	0	0	504	509	0	766	38	7	
9	0	0	0	0	499	509	0	735	37	7	
10	0	0	0	0	505	509	0	686	37	6	
11	0	0	0	0	511	508	0	686	37	7	
12	0	0	0	0	505	508	0	742	37	7	
13	0	0	0	0	502	509	0	768	38	8	
14	0	0	0	0	498	509	0	744	37	8	
15	0	0	0	0	505	509	0	676	38	9	
0	0	0	0	0	519	510	0	620	38	8	
1	0	0	0	0	511	511	0	590	37	8	
2	0	0	0	0	513	511	0	576	38	7	
3	0	0	0	0	515	511	0	585	38	7	
4	0	0	0	0	510	512	0	667	38	6	
5	0	0	0	0	506	512	0	743	38	7	
6	0	0	0	0	511	511	0	796	38	7	
7	0	0	0	0	514	512	0	818	38	8	
8	0	0	0	0	505	512	0	799	38	8	
9	0	0	0	0	514	511	0	703	37	9	
10	0	0	0	0	511	511	0	628	38	8	
11	0	0	0	0	510	510	0	698	38	8	
12	0	0	0	0	507	510	0	719	38	7	
13	0	0	0	0	508	509	0	551	38	7	
14	0	0	0	0	506	508	0	536	38	6	
15	0	0	0	0	509	508	0	515	38	7	
0	0	0	0	0	505	508	0	440	38	7	
1	0	0	0	0	501	507	0	359	37	8	
2	0	0	0	0	496	507	0	320	38	8	
3	0	0	0	0	506	508	0	347	38	9	
4	0	0	0	0	510	508	0	387	38	8	
5	0	0	0	0	512	508	0	460	38	7	
6	0	0	0	0	515	508	0	568	38	7	
7	0	0	0	0	513	508	0	601	38	7	
8	0	0	0	0	512	508	0	553	38	6	
9	0	0	0	0	505	508	0	519	37	7	
10	0	0	0	0	511	509	0	552	38	7	
11	0	0	0	0	508	509	0	542	38	8	
12	0	0	0	0	511	509	0	559	38	8	
13	0	0	0	0	513	509	0	620	38	9	
14	0	0	0	0	508	508	0	643	38	8	
15	0	0	0	0	509	508	0	679	38	7	
0	0	0	0	0	502	508	0	704	38	7	
1	0	0	0	0	507	507	0	708	37	7	
2	0	0	0	0	512	508	0	723	38	6	
3	0	0	0	0	510	508	0	720	38	7	
4	0	0	0	0	506	508	0	699	38	7	
5	0	0	0	0	503	507	0	659	38	8	
6	0	0	0	0	507	506	0	614	38	8	
7	0	0	0	0	508	506	0	547	38	9	
8	0	0	0	0	511	507	0	512	38	8	
9	0	0	0	0	509	507	0	507	37	7	
10	0	0	0	0	513	507	0	508	38	7	
11	0	0	0	0	505	507	0	518	38	7	
12	0	0	0	0	516	507	0	533	38	6	
13	0	0	0	0	512	508	0	571	38	7	
14	0	0	0	0	511	508	0	612	38	7	
15	0	0	0	0	500	508	0	639	38	8	
0	0	0	0	0	510	508	0	640	38	8	
1	0	0	0	0	504	508	0	616	37	9	
2	0	0	0	0	517	509	0	590	38	8	
3	0	0	0	0	520	509	0	588	38	7	
4	0	0	0	0	511	509	0	628	38	7	
5	0	0	0	0	511	509	0	689	38	7	
6	0	0	0	0	504	509	0	698	38	6	
7	0	0	0	0	503	508	0	678	38	7	
8	0	0	0	0	496	508	0	663	38	7	
9	0	0	0	0	500	510	0	654	37	8	
10	0	0	0	0	514	510	0	632	38	8	
11	0	0	0	0	513	510	0	580	38	9	
12	0	0	0	0	514	509	0	490	38	8	
13	0	0	0	0	515	509	0	421	38	7	
14	0	0	0	0	512	509	0	408	38	7	
15	0	0	0	0	513	509	0	403	38	7	
0	0	0	0	0	512	509	0	408	38	6	
1	0	0	0	0	504	509	0	438	37	7	
2	0	0	0	0	511	509	0	456	38	7	
3	0	0	0	0	501	510	0	485	38	8	
4	0	0	0	0	508	511	0	476	38	8	
5	0	0	0	0	510	512	0	409	38	9	
6	0	0	0	0	510	511	0	374	38	8	
7	0	0	0	0	516	511	0	419	38	7	
8	0	0	0	0	519	510	0	484	38	7	
9	0	0	0	0	511	511	0	552	37	7	
10	0	0	0	0	508	510	0	593	38	6	
11	0	0	0	0	502	511	0	591	38	7	
12	0	0	0	0	503	511	0	643	38	7	
13	0	0	0	0	498	511	0	647	38	8	
14	0	0	0	0	506	510	0	602	38	8	
15	0	0	0	0	511	511	0	535	38	9	
0	0	0	0	0	507	511	0	484	38	8	
1	0	0	0	0	513	511	0	474	38	7	
2	0	0	0	0	511	512	0	497	38	7	
3	0	0	0	0	511	512	0	442	38	7	
4	0	0	0	0	513	511	0	419	38	6	
5	0	0	0	0	513	511	0	450	38	7	
6	0	0	0	0	513	511	0	459	38	7	
7	0	0	0	0	507	511	0	460	38	8	
8	0	0	0	0	504	511	0	476	38	8	
9	0	0	0	0	504	511	0	459	38	9	
10	0	0	0	0	505	512	0	414	38	8	
11	0	0	0	0	513	511	0	380	38	7	
12	0	0	0	0	510	511	0	432	38	7	
13	0	0	0	0	518	510	0	524	38	7	
14	0	0	0	0	504	510	0	600	38	6	
15	0	0	0	0	513	509	0	636	38	7	
0	0	0	0	0	505	508	0	637	38	7	
1	0	0	0	0	508	508	0	603	38	8	
2	0	0	0	0	506	509	0	540	38	8	
3	0	0	0	0	513	509	0	473	38	9	
4	0	0	0	0	504	510	0	420	38	8	
5	0	0	0	0	513	510	0	393	38	8	
6	0	0	0	0	512	511	0	421	38	7	
7	0	0	0	0	513	511	0	454	38	7	
8	0	0	0	0	510	511	0	509	38	6	
9	0	0	0	0	513	512	0	561	38	7	
10	0	0	0	0	506	512	0	596	38	7	
11	0	0	0	0	509	512	0	606	38	8	
12	0	0	0	0	515	512	0	632	38	8	
13	0	0	0	0	507	512	0	693	38	9	
14	0	0	0	0	514	512	0	751	38	8	
15	0	0	0	0	511	511	0	808	38	8	
0	0	0	0	0	514	511	0	823	38	7	
1	0	0	0	0	508	510	0	803	38	7	
2	0	0	0	0	507	509	0	778	38	6	
3	0	0	0	0	504	508	0	780	38	7	
4	0	0	0	0	505	508	0	824	38	7	
5	0	0	0	0	508	509	0	849	38	8	
6	0	0	0	0	508	508	0	819	38	8	
7	0	0	0	0	510	509	0	718	38	9	
8	0	0	0	0	512	509	0	595	38	8	
9	0	0	0	0	509	509	0	530	38	8	
10	0	0	0	0	510	509	0	536	38	7	
11	0	0	0	0	512	508	0	561	38	7	
12	0	0	0	0	508	508	0	575	38	6	
13	0	0	0	0	511	509	0	570	38	7	
14	0	0	0	0	510	509	0	589	38	7	
15	0	0	0	0	509	509	0	637	38	8	
0	0	0	0	0	508	510	0	676	38	8	
1	0	0	0	0	513	509	0	665	38	9	
2	0	0	0	0	515	509	0	614	38	8	
3	0	0	0	0	509	509	0	585	38	8	
4	0	0	0	0	509	509	0	606	38	7	
5	0	0	0	0	505	509	0	649	38	7	
6	0	0	0	0	503	509	0	679	38	6	
7	0	0	0	0	515	509	0	704	38	7	
8	0	0	0	0	510	509	0	705	38	7	
9	0	0	0	0	503	510	0	664	38	8	
10	0	0	0	0	507	510	0	601	38	8	
11	0	0	0	0	507	510	0	546	38	9	
12	0	0	0	0	505	511	0	508	38	8	
13	0	0	0	0	510	510	0	509	38	8	
14	0	0	0	0	512	510	0	488	38	7	
15	0	0	0	0	516	510	0	459	38	7	
0	0	0	0	0	512	510	0	462	38	6	
1	0	0	0	0	510	510	0	493	38	7	
2	0	0	0	0	511	510	0	532	38	7	
3	0	0	0	0	508	510	0	575	38	8	
4	0	0	0	0	516	510	0	590	38	8	
5	0	0	0	0	514	510	0	579	38	9	
6	0	0	0	0	508	510	0	555	38	8	
7	0	0	0	0	510	510	0	538	38	8	
8	0	0	0	0	512	510	0	537	38	7	
9	0	0	0	0	508	509	0	552	38	7	
10	0	0	0	0	512	510	0	583	38	6	
11	0	0	0	0	506	510	0	578	38	7	
12	0	0	0	0	502	510	0	535	38	7	
13	0	0	0	0	511	511	0	491	38	8	
14	0	0	0	0	506	510	0	404	38	8	
15	0	0	0	0	507	511	0	355	38	9	
0	0	0	0	0	510	511	0	370	38	8	
1	0	0	0	0	508	511	0	398	38	8	
2	0	0	0	0	512	511	0	439	38	7	
3	0	0	0	0	511	510	0	478	38	7	
4	0	0	0	0	511	511	0	520	38	6	
5	0	0	0	0	508	511	0	559	38	7	
6	0	0	0	0	512	511	0	575	38	7	
7	0	0	0	0	507	511	0	571	38	8	
8	0	0	0	0	510	510	0	544	38	8	
9	0	0	0	0	510	510	0	521	38	9	
10	0	0	0	0	510	510	0	523	38	8	
11	0	0	0	0	510	510	0	562	38	8	
12	0	0	0	0	505	509	0	635	38	7	
13	0	0	0	0	513	508	0	679	38	7	
14	0	0	0	0	512	508	0	700	38	6	
15	0	0	0	0	507	507	0	692	38	7	
0	0	0	0	0	508	507	0	652	38	7	
1	0	0	0	0	506	508	0	596	38	8	
2	0	0	0	0	507	508	0	536	38	8	
3	0	0	0	0	505	508	0	464	38	9	
4	0	0	0	0	512	508	0	434	38	8	
5	0	0	0	0	508	508	0	399	38	8	
6	0	0	0	0	509	508	0	383	38	7	
7	0	0	0	0	511	509	0	391	38	7	
8	0	0	0	0	509	509	0	400	38	6	
9	0	0	0	0	510	509	0	451	38	7	
10	0	0	0	0	516	509	0	522	38	7	
11	0	0	0	0	510	510	0	577	38	8	
12	0	0	0	0	509	509	0	611	38	8	
13	0	0	0	0	509	509	0	620	38	9	
14	0	0	0	0	513	509	0	627	38	8	
15	0	0	0	0	516	509	0	649	38	8	
0	0	0	0	0	510	509	0	684	38	7	
1	0	0	0	0	504	509	0	698	38	7	
2	0	0	0	0	509	510	0	688	38	6	
3	0	0	0	0	512	511	0	676	38	7	
4	0	0	0	0	501	510	0	661	38	7	
5	0	0	0	0	508	511	0	623	38	8	
6	0	0	0	0	499	511	0	561	38	8	
7	0	0	0	0	508	511	0	484	38	9	
8	0	0	0	0	512	512	0	406	38	8	
9	0	0	0	0	515	511	0	351	38	8	
10	0	0	0	0	514	511	0	328	38	7	
11	0	0	0	0	511	511	0	329	38	7	
12	0	0	0	0	503	511	0	343	38	6	
13	0	0	0	0	514	511	0	359	38	7	
14	0	0	0	0	511	510	0	371	38	7	
15	0	0	0	0	511	511	0	361	38	8	
0	0	0	0	0	512	511	0	353	38	8	
1	0	0	0	0	512	511	0	371	38	9	
2	0	0	0	0	511	510	0	416	38	8	
3	0	0	0	0	513	510	0	491	38	8	
4	0	0	0	0	508	509	0	612	38	7	
5	0	0	0	0	499	510	0	670	38	7	
6	0	0	0	0	510	510	0	678	38	6	
7	0	0	0	0	507	510	0	662	38	7	
8	0	0	0	0	507	510	0	600	38	7	
9	0	0	0	0	505	510	0	483	38	8	
10	0	0	0	0	501	511	0	372	38	8	
11	0	0	0	0	504	511	0	310	38	9	
12	0	0	0	0	509	511	0	273	38	8	
13	0	0	0	0	511	512	0	246	38	8	
14	0	0	0	0	514	511	0	237	38	7	
15	0	0	0	0	513	511	0	265	38	7	
0	0	0	0	0	513	511	0	291	38	6	
1	0	0	0	0	515	511	0	312	38	7	
2	0	0	0	0	504	511	0	330	38	7	
3	0	0	0	0	504	511	0	360	38	8	
4	0	0	0	0	515	511	0	386	38	8	
5	0	0	0	0	504	511	0	408	38	9	
6	0	0	0	0	515	511	0	450	38	8	
7	0	0	0	0	512	510	0	531	38	8	
8	0	0	0	0	513	511	0	609	38	7	
9	0	0	0	0	509	510	0	661	38	7	
10	0	0	0	0	509	510	0	706	38	6	
11	0	0	0	0	510	510	0	713	38	7	
12	0	0	0	0	497	510	0	684	38	7	
13	0	0	0	0	503	510	0	632	38	8	
14	0	0	0	0	513	510	0	543	38	8	
15	0	0	0	0	501	510	0	430	38	9	
0	0	0	0	0	508	510	0	324	38	8	
1	0	0	0	0	516	510	0	252	38	8	
2	0	0	0	0	511	511	0	196	38	7	
3	0	0	0	0	506	511	0	175	38	7	
4	0	0	0	0	515	511	0	202	38	6	
5	0	0	0	0	513	511	0	234	38	7	
6	0	0	0	0	510	511	0	217	38	7	
7	0	0	0	0	512	511	0	187	38	8	
8	0	0	0	0	507	511	0	180	38	8	
9	0	0	0	0	514	510	0	148	38	9	
10	0	0	0	0	517	510	0	147	38	8	
11	0	0	0	0	510	510	0	176	38	8	
12	0	0	0	0	516	510	0	207	38	7	
13	0	0	0	0	511	510	0	243	38	7	
14	0	0	0	0	504	511	0	271	38	6	
15	0	0	0	0	510	511	0	272	38	7	
0	0	0	0	0	513	510	0	264	38	7	
1	0	0	0	0	508	511	0	231	38	8	
2	0	0	0	0	507	512	0	174	38	8	
3	0	0	0	0	499	512	0	105	38	9	
4	0	0	0	0	512	512	0	48	38	8	
5	0	0	0	0	515	512	0	49	38	8	
6	0	0	0	0	508	512	0	61	38	7	
7	0	0	0	0	515	512	0	48	38	7	
8	0	0	0	0	508	512	0	46	38	6	
9	0	0	0	0	511	512	0	65	38	7	
10	0	0	0	0	509	512	0	102	38	7	
11	0	0	0	0	509	512	0	176	38	8	
12	0	0	0	0	510	512	0	254	38	8	
13	0	0	0	0	508	511	0	313	38	9	
14	0	0	0	0	515	510	0	336	38	8	
15	0	0	0	0	510	510	0	356	38	8	
0	0	0	0	0	509	509	0	409	38	7	
1	0	0	0	0	507	508	0	407	38	7	
2	0	0	0	0	511	509	0	336	38	6	
3	0	0	0	0	512	509	0	254	38	7	
4	0	0	0	0	504	509	0	213	38	7	
5	0	0	0	0	505	510	0	179	38	8	
6	0	0	0	0	505	510	0	136	38	8	
7	0	0	0	0	504	510	0	107	38	9	
8	0	0	0	0	514	510	0	83	38	8	
9	0	0	0	0	510	510	0	71	38	8	
10	0	0	0	0	508	511	0	87	38	7	
11	0	0	0	0	507	511	0	119	38	7	
12	0	0	0	0	510	511	0	126	38	6	
13	0	0	0	0	511	510	0	135	38	7	
14	0	0	0	0	509	510	0	157	38	7	
15	0	0	0	0	508	510	0	186	38	8	
0	0	0	0	0	510	510	0	229	38	8	
1	0	0	0	0	508	510	0	271	38	9	
2	0	0	0	0	513	510	0	312	38	8	
3	0	0	0	0	512	510	0	352	38	8	
4	0	0	0	0	513	510	0	403	38	7	
5	0	0	0	0	511	509	0	465	38	7	
6	0	0	0	0	508	509	0	498	38	6	
7	0	0	0	0	506	510	0	496	38	7	
8	0	0	0	0	504	509	0	467	38	7	
9	0	0	0	0	508	510	0	435	38	8	
10	0	0	0	0	505	510	0	404	38	8	
11	0	0	0	0	504	510	0	332	38	9	
12	0	0	0	0	508	510	0	191	38	8	
13	0	0	0	0	515	509	0	34	38	8	
14	0	0	0	0	514	509	0	0	38	7	
15	0	0	0	0	511	509	0	0	38	7	
0	0	0	0	0	506	509	0	0	38	6	
1	0	0	0	0	512	509	0	0	38	7	
2	0	0	0	0	506	510	0	96	38	7	
3	0	0	0	0	512	509	0	189	38	8	
4	0	0	0	0	508	510	0	294	38	8	
5	0	0	0	0	512	510	0	379	38	9	
6	0	0	0	0	523	510	0	452	38	8	
7	0	0	0	0	513	510	0	512	38	7	
8	0	0	0	0	506	510	0	588	38	7	
9	0	0	0	0	505	509	0	652	38	7	
10	0	0	0	0	507	510	0	695	38	6	
11	0	0	0	0	504	510	0	708	38	7	
12	0	0	0	0	502	510	0	692	38	7	
13	0	0	0	0	500	510	0	659	38	8	
14	0	0	0	0	505	510	0	607	38	8	
15	0	0	0	0	518	511	0	545	38	9	
0	0	0	0	0	511	511	0	483	38	8	
1	0	0	0	0	513	511	0	449	38	8	
2	0	0	0	0	509	511	0	435	38	7	
3	0	0	0	0	507	511	0	411	38	7	
4	0	0	0	0	514	511	0	412	38	6	
5	0	0	0	0	509	511	0	451	38	7	
6	0	0	0	0	510	511	0	452	38	7	
7	0	0	0	0	511	510	0	443	38	8	
8	0	0	0	0	510	511	0	415	38	8	
9	0	0	0	0	507	511	0	375	38	9	
10	0	0	0	0	511	511	0	346	38	8	
11	0	0	0	0	510	511	0	366	38	7	
12	0	0	0	0	508	511	0	417	38	7	
13	0	0	0	0	513	511	0	460	38	7	
14	0	0	0	0	510	511	0	476	38	6	
15	0	0	0	0	505	511	0	456	38	7	
0	0	0	0	0	502	511	0	420	38	7	
1	0	0	0	0	504	511	0	370	38	8	
2	0	0	0	0	503	512	0	329	38	8	
3	0	0	0	0	506	512	0	288	38	9	
4	0	0	0	0	515	512	0	247	38	8	
5	0	0	0	0	507	512	0	233	38	7	
6	0	0	0	0	508	512	0	233	38	7	
7	0	0	0	0	513	512	0	232	38	7	
8	0	0	0	0	511	511	0	235	38	6	
9	0	0	0	0	513	511	0	257	38	7	
10	0	0	0	0	512	511	0	291	38	7	
11	0	0	0	0	514	512	0	345	38	8	
12	0	0	0	0	509	512	0	399	38	8	
13	0	0	0	0	501	512	0	439	38	9	
14	0	0	0	0	514	513	0	463	38	8	
15	0	0	0	0	513	512	0	475	38	8	
0	0	0	0	0	510	513	0	494	38	7	
1	0	0	0	0	509	513	0	562	38	7	
2	0	0	0	0	506	513	0	601	38	6	
3	0	0	0	0	509	512	0	607	38	7	
4	0	0	0	0	510	512	0	590	38	7	
5	0	0	0	0	504	512	0	527	38	8	
6	0	0	0	0	512	511	0	451	38	8	
7	0	0	0	0	503	512	0	360	38	9	
8	0	0	0	0	512	512	0	280	38	8	
9	0	0	0	0	508	512	0	255	38	7	
10	0	0	0	0	509	513	0	259	38	7	
11	0	0	0	0	511	512	0	256	38	6	
12	0	0	0	0	508	512	0	277	38	6	
13	0	0	0	0	517	512	0	308	38	7	
14	0	0	0	0	511	512	0	317	38	7	
15	0	0	0	0	503	512	0	307	38	8	
0	0	0	0	0	515	511	0	294	38	8	
1	0	0	0	0	508	512	0	295	38	9	
2	0	0	0	0	512	512	0	316	38	8	
3	0	0	0	0	509	512	0	355	38	7	
4	0	0	0	0	509	512	0	370	38	7	
5	0	0	0	0	505	513	0	367	38	7	
6	0	0	0	0	510	512	0	375	38	6	
7	0	0	0	0	510	512	0	419	38	7	
8	0	0	0	0	499	512	0	480	38	7	
9	0	0	0	0	509	512	0	495	38	8	
10	0	0	0	0	511	511	0	464	38	8	
11	0	0	0	0	513	511	0	367	38	8	
12	0	0	0	0	508	511	0	233	38	8	
13	0	0	0	0	510	511	0	127	38	8	
14	0	0	0	0	511	511	0	108	38	7	
15	0	0	0	0	512	511	0	115	38	7	
0	0	0	0	0	513	512	0	141	38	6	
1	0	0	0	0	516	512	0	191	38	7	
2	0	0	0	0	506	511	0	245	38	7	
3	0	0	0	0	503	512	0	285	38	8	
4	0	0	0	0	510	512	0	302	38	8	
5	0	0	0	0	512	513	0	311	38	9	
6	0	0	0	0	515	513	0	339	38	8	
7	0	0	0	0	515	512	0	411	38	7	
8	0	0	0	0	506	513	0	452	38	7	
9	0	0	0	0	504	512	0	472	38	7	
10	0	0	0	0	508	512	0	470	38	6	
11	0	0	0	0	504	512	0	452	38	7	
12	0	0	0	0	499	512	0	422	38	7	
13	0	0	0	0	504	513	0	391	38	8	
14	0	0	0	0	508	512	0	356	38	8	
15	0	0	0	0	508	513	0	307	38	8	
0	0	0	0	0	507	512	0	270	38	8	
1	0	0	0	0	518	512	0	249	38	7	
2	0	0	0	0	514	512	0	251	38	7	
3	0	0	0	0	518	512	0	263	38	6	
4	0	0	0	0	507	512	0	252	38	6	
5	0	0	0	0	506	513	0	267	38	7	
6	0	0	0	0	511	513	0	307	38	7	
7	0	0	0	0	508	513	0	331	38	8	
8	0	0	0	0	509	512	0	349	38	8	
9	0	0	0	0	505	512	0	358	38	8	
10	0	0	0	0	509	512	0	353	38	8	
11	0	0	0	0	517	513	0	361	38	7	
12	0	0	0	0	511	512	0	395	38	7	
13	0	0	0	0	511	512	0	422	38	7	
14	0	0	0	0	508	512	0	420	38	6	
15	0	0	0	0	500	511	0	374	38	7	
0	0	0	0	0	507	511	0	325	38	7	
1	0	0	0	0	508	511	0	294	38	8	
2	0	0	0	0	502	511	0	284	38	8	
3	0	0	0	0	506	511	0	278	38	8	
4	0	0	0	0	510	512	0	265	38	8	
5	0	0	0	0	518	513	0	272	38	7	
6	0	0	0	0	508	513	0	309	38	7	
7	0	0	0	0	511	513	0	380	38	6	
8	0	0	0	0	510	513	0	476	38	6	
9	0	0	0	0	511	513	0	563	38	7	
10	0	0	0	0	516	513	0	612	38	7	
11	0	0	0	0	499	513	0	653	38	8	
12	0	0	0	0	511	513	0	668	38	8	
13	0	0	0	0	507	513	0	688	38	8	
14	0	0	0	0	508	513	0	727	38	8	
15	0	0	0	0	523	513	0	775	38	7	
0	0	0	0	0	510	512	0	817	38	7	
1	0	0	0	0	516	512	0	844	38	6	
2	0	0	0	0	508	511	0	866	38	6	
3	0	0	0	0	509	511	0	861	38	7	
4	0	0	0	0	509	511	0	849	38	7	
5	0	0	0	0	506	511	0	839	38	8	
6	0	0	0	0	503	511	0	811	38	8	
7	0	0	0	0	508	511	0	783	38	8	
8	0	0	0	0	510	511	0	753	38	8	
9	0	0	0	0	511	512	0	718	38	7	
10	0	0	0	0	513	511	0	688	38	7	
11	0	0	0	0	510	511	0	689	38	6	
12	0	0	0	0	504	511	0	711	38	6	
13	0	0	0	0	508	511	0	744	38	7	
14	0	0	0	0	508	511	0	785	38	7	
15	0	0	0	0	504	511	0	851	38	8	
0	0	0	0	0	511	512	0	937	38	8	
1	0	0	0	0	507	512	0	1007	38	8	
2	0	0	0	0	512	513	0	1018	38	8	
3	0	0	0	0	511	513	0	1018	38	7	
4	0	0	0	0	510	513	0	1018	38	7	
5	0	0	0	0	512	513	0	1018	38	6	
6	0	0	0	0	510	512	0	1018	38	6	
7	0	0	0	0	508	513	0	1018	38	7	
8	0	0	0	0	505	513	0	1018	38	7	
9	0	0	0	0	504	513	0	1018	38	8	
10	0	0	0	0	507	513	0	1018	38	8	
11	0	0	0	0	514	515	0	911	38	8	
12	0	0	0	0	515	514	0	852	38	8	
13	0	0	0	0	507	514	0	822	38	7	
14	0	0	0	0	512	514	0	821	38	7	
15	0	0	0	0	514	514	0	849	38	6	
0	0	0	0	0	505	514	0	849	38	6	
1	0	0	0	0	510	514	0	867	38	7	
2	0	0	0	0	510	513	0	871	38	7	
3	0	0	0	0	512	513	0	886	38	8	
4	0	0	0	0	504	512	0	925	38	8	
5	0	0	0	0	511	512	0	955	38	8	
6	0	0	0	0	515	513	0	986	38	8	
7	0	0	0	0	520	513	0	1013	38	7	
8	0	0	0	0	503	513	0	1018	38	7	
9	0	0	0	0	504	512	0	1018	38	6	
10	0	0	0	0	512	512	0	1018	38	6	
11	0	0	0	0	508	512	0	1018	38	7	
12	0	0	0	0	498	511	0	1018	38	7	
13	0	0	0	0	511	512	0	926	38	8	
14	0	0	0	0	509	512	0	875	38	8	
15	0	0	0	0	504	512	0	822	38	8	
0	0	0	0	0	506	513	0	782	38	8	
1	0	0	0	0	509	513	0	780	38	7	
2	0	0	0	0	511	512	0	814	38	7	
3	0	0	0	0	512	512	0	841	38	6	
4	0	0	0	0	512	512	0	867	38	6	
5	0	0	0	0	517	512	0	904	38	7	
6	0	0	0	0	511	513	0	920	38	7	
7	0	0	0	0	507	512	0	914	38	8	
8	0	0	0	0	511	512	0	908	38	8	
9	0	0	0	0	511	512	0	911	38	8	
10	0	0	0	0	509	512	0	919	38	8	
11	0	0	0	0	511	511	0	926	38	7	
12	0	0	0	0	510	511	0	961	38	7	
13	0	0	0	0	515	511	0	1010	38	6	
14	0	0	0	0	511	511	0	1018	38	6	
15	0	0	0	0	506	512	0	1018	38	7	
0	0	0	0	0	504	511	0	1018	38	7	
1	0	0	0	0	496	511	0	1018	38	8	
2	0	0	0	0	508	512	0	1018	38	8	
3	0	0	0	0	508	512	0	929	38	8	
4	0	0	0	0	513	512	0	864	38	8	
5	0	0	0	0	510	512	0	838	38	7	
6	0	0	0	0	506	512	0	836	38	7	
7	0	0	0	0	513	513	0	833	38	6	
8	0	0	0	0	511	513	0	839	38	6	
9	0	0	0	0	517	513	0	862	38	7	
10	0	0	0	0	508	513	0	881	38	7	
11	0	0	0	0	511	514	0	906	38	8	
12	0	0	0	0	509	515	0	929	38	8	
13	0	0	0	0	511	515	0	930	38	8	
14	0	0	0	0	508	515	0	944	38	8	
15	0	0	0	0	520	515	0	984	38	7	
0	0	0	0	0	507	515	0	1017	38	7	
1	0	0	0	0	511	515	0	1018	38	6	
2	0	0	0	0	501	515	0	1018	38	6	
3	0	0	0	0	507	515	0	1018	38	7	
4	0	0	0	0	501	514	0	1018	38	7	
5	0	0	0	0	502	514	0	1018	38	8	
6	0	0	0	0	507	514	0	988	38	8	
7	0	0	0	0	510	514	0	966	38	8	
8	0	0	0	0	514	514	0	920	38	8	
9	0	0	0	0	504	514	0	870	38	7	
10	0	0	0	0	509	513	0	837	38	7	
11	0	0	0	0	520	513	0	821	38	6	
12	0	0	0	0	511	513	0	813	38	6	
13	0	0	0	0	510	513	0	807	38	7	
14	0	0	0	0	508	512	0	797	38	7	
15	0	0	0	0	509	512	0	789	38	8	
0	0	0	0	0	508	513	0	782	38	8	
1	0	0	0	0	510	513	0	746	38	8	
2	0	0	0	0	512	514	0	700	38	8	
3	0	0	0	0	517	513	0	692	38	7	
4	0	0	0	0	517	513	0	736	38	7	
5	0	0	0	0	506	512	0	793	38	6	
6	0	0	0	0	502	512	0	839	38	6	
7	0	0	0	0	509	512	0	893	38	7	
8	0	0	0	0	506	512	0	946	38	7	
9	0	0	0	0	506	512	0	927	38	8	
10	0	0	0	0	501	512	0	869	38	8	
11	0	0	0	0	507	512	0	798	38	8	
12	0	0	0	0	509	512	0	719	38	8	
13	0	0	0	0	513	512	0	656	38	7	
14	0	0	0	0	519	512	0	622	38	7	
15	0	0	0	0	516	512	0	615	38	6	
0	0	0	0	0	513	513	0	628	38	6	
1	0	0	0	0	517	514	0	673	38	7	
2	0	0	0	0	511	513	0	741	38	7	
3	0	0	0	0	509	514	0	803	38	8	
4	0	0	0	0	510	513	0	849	38	8	
5	0	0	0	0	503	513	0	895	38	8	
6	0	0	0	0	514	514	0	875	38	8	
7	0	0	0	0	510	514	0	880	38	7	
8	0	0	0	0	511	513	0	898	38	7	
9	0	0	0	0	511	513	0	929	38	6	
10	0	0	0	0	504	513	0	952	38	6	
11	0	0	0	0	503	513	0	976	38	7	
12	0	0	0	0	503	513	0	993	38	7	
13	0	0	0	0	507	514	0	959	38	8	
14	0	0	0	0	505	513	0	877	38	8	
15	0	0	0	0	507	514	0	793	38	8	
0	0	0	0	0	514	514	0	741	38	8	
1	0	0	0	0	509	514	0	695	38	7	
2	0	0	0	0	512	514	0	678	38	7	
3	0	0	0	0	521	513	0	669	38	6	
4	0	0	0	0	510	513	0	692	38	6	
5	0	0	0	0	512	513	0	752	38	7	
6	0	0	0	0	507	513	0	798	38	7	
7	0	0	0	0	508	513	0	833	38	8	
8	0	0	0	0	508	512	0	868	38	8	
9	0	0	0	0	511	512	0	892	38	8	
10	0	0	0	0	512	512	0	901	38	8	
11	0	0	0	0	512	513	0	920	38	7	
12	0	0	0	0	514	513	0	941	38	7	
13	0	0	0	0	506	514	0	956	38	6	
14	0	0	0	0	509	514	0	962	38	6	
15	0	0	0	0	507	514	0	941	38	7	
0	0	0	0	0	496	514	0	904	38	7	
1	0	0	0	0	502	514	0	856	38	8	
2	0	0	0	0	505	515	0	799	38	8	
3	0	0	0	0	508	515	0	756	38	8	
4	0	0	0	0	519	515	0	698	38	8	
5	0	0	0	0	513	514	0	628	38	7	
6	0	0	0	0	517	514	0	584	38	7	
7	0	0	0	0	508	513	0	568	38	6	
8	0	0	0	0	508	514	0	544	38	6	
9	0	0	0	0	510	515	0	512	38	7	
10	0	0	0	0	507	515	0	494	38	7	
11	0	0	0	0	508	515	0	491	38	8	
12	0	0	0	0	505	514	0	510	38	8	
13	0	0	0	0	503	514	0	566	38	8	
14	0	0	0	0	510	513	0	639	38	8	
15	0	0	0	0	512	513	0	690	38	7	
0	0	0	0	0	516	514	0	690	38	7	
1	0	0	0	0	512	513	0	696	38	6	
2	0	0	0	0	504	513	0	729	38	6	
3	0	0	0	0	505	514	0	775	38	7	
4	0	0	0	0	505	514	0	832	38	7	
5	0	0	0	0	513	515	0	837	38	8	
6	0	0	0	0	504	514	0	774	38	8	
7	0	0	0	0	504	515	0	681	38	8	
8	0	0	0	0	507	515	0	620	38	8	
9	0	0	0	0	506	515	0	548	38	7	
10	0	0	0	0	507	514	0	481	38	7	
11	0	0	0	0	506	513	0	473	38	6	
12	0	0	0	0	517	512	0	508	38	6	
13	0	0	0	0	513	512	0	556	38	7	
14	0	0	0	0	509	512	0	611	38	7	
15	0	0	0	0	515	512	0	658	38	8	
0	0	0	0	0	512	512	0	690	38	8	
1	0	0	0	0	509	513	0	718	38	8	
2	0	0	0	0	515	513	0	744	38	8	
3	0	0	0	0	505	513	0	770	38	7	
4	0	0	0	0	513	514	0	799	38	7	
5	0	0	0	0	504	514	0	821	38	6	
6	0	0	0	0	512	514	0	821	38	6	
7	0	0	0	0	516	514	0	816	38	7	
8	0	0	0	0	509	514	0	806	38	7	
9	0	0	0	0	510	514	0	759	38	8	
10	0	0	0	0	500	513	0	710	38	8	
11	0	0	0	0	509	514	0	654	38	8	
12	0	0	0	0	510	514	0	587	38	8	
13	0	0	0	0	508	515	0	503	38	7	
14	0	0	0	0	515	515	0	432	38	7	
15	0	0	0	0	508	515	0	380	38	6	
0	0	0	0	0	506	515	0	352	38	6	
1	0	0	0	0	504	515	0	371	38	7	
2	0	0	0	0	504	515	0	411	38	7	
3	0	0	0	0	507	515	0	421	38	8	
4	0	0	0	0	507	515	0	422	38	8	
5	0	0	0	0	511	515	0	431	38	8	
6	0	0	0	0	517	515	0	463	38	8	
7	0	0	0	0	511	515	0	523	38	7	
8	0	0	0	0	518	515	0	585	38	7	
9	0	0	0	0	511	515	0	636	38	6	
10	0	0	0	0	501	516	0	659	38	6	
11	0	0	0	0	509	516	0	647	38	6	
12	0	0	0	0	507	516	0	634	38	7	
13	0	0	0	0	504	516	0	624	38	8	
14	0	0	0	0	504	515	0	605	38	8	
15	0	0	0	0	506	515	0	591	38	8	
0	0	0	0	0	508	514	0	568	38	8	
1	0	0	0	0	512	514	0	547	38	7	
2	0	0	0	0	510	513	0	543	38	7	
3	0	0	0	0	512	513	0	532	38	6	
4	0	0	0	0	509	513	0	509	38	6	
5	0	0	0	0	509	513	0	492	38	7	
6	0	0	0	0	512	513	0	504	38	7	
7	0	0	0	0	512	514	0	539	38	8	
8	0	0	0	0	508	514	0	571	38	8	
9	0	0	0	0	514	513	0	582	38	8	
10	0	0	0	0	515	514	0	593	38	8	
11	0	0	0	0	515	513	0	607	38	7	
12	0	0	0	0	502	513	0	636	38	7	
13	0	0	0	0	510	513	0	651	38	6	
14	0	0	0	0	508	513	0	619	38	6	
15	0	0	0	0	504	513	0	589	38	7	
0	0	0	0	0	510	513	0	597	38	7	
1	0	0	0	0	499	513	0	607	38	8	
2	0	0	0	0	508	513	0	591	38	8	
3	0	0	0	0	515	513	0	556	38	8	
4	0	0	0	0	506	514	0	513	38	8	
5	0	0	0	0	518	515	0	462	38	7	
6	0	0	0	0	509	516	0	407	38	7	
7	0	0	0	0	512	516	0	379	38	6	
8	0	0	0	0	513	516	0	388	38	6	
9	0	0	0	0	509	516	0	411	38	7	
10	0	0	0	0	508	516	0	408	38	7	
11	0	0	0	0	507	515	0	406	38	8	
12	0	0	0	0	513	515	0	390	38	8	
13	0	0	0	0	511	516	0	412	38	8	
14	0	0	0	0	508	516	0	432	38	8	
15	0	0	0	0	515	516	0	468	38	7	
0	0	0	0	0	510	516	0	508	38	7	
1	0	0	0	0	508	516	0	553	38	6	
2	0	0	0	0	505	516	0	611	38	6	
3	0	0	0	0	511	516	0	665	38	6	
4	0	0	0	0	507	515	0	687	38	7	
5	0	0	0	0	504	515	0	675	38	8	
6	0	0	0	0	506	514	0	640	38	8	
7	0	0	0	0	503	515	0	594	38	8	
8	0	0	0	0	509	515	0	543	38	8	
9	0	0	0	0	514	515	0	499	38	7	
10	0	0	0	0	510	515	0	464	38	7	
11	0	0	0	0	518	516	0	444	38	6	
12	0	0	0	0	511	516	0	423	38	6	
13	0	0	0	0	507	516	0	388	38	6	
14	0	0	0	0	508	516	0	368	38	7	
15	0	0	0	0	509	516	0	376	38	8	
0	0	0	0	0	514	516	0	399	38	8	
1	0	0	0	0	506	515	0	428	38	8	
2	0	0	0	0	520	515	0	447	38	8	
3	0	0	0	0	512	515	0	473	38	7	
4	0	0	0	0	507	515	0	511	38	7	
5	0	0	0	0	506	515	0	542	38	6	
6	0	0	0	0	503	516	0	563	38	6	
7	0	0	0	0	506	516	0	569	38	6	
8	0	0	0	0	508	516	0	567	38	7	
9	0	0	0	0	515	516	0	550	38	8	
10	0	0	0	0	499	516	0	520	38	8	
11	0	0	0	0	511	516	0	469	38	8	
12	0	0	0	0	512	517	0	387	38	8	
13	0	0	0	0	509	516	0	321	38	7	
14	0	0	0	0	507	516	0	294	38	7	
15	0	0	0	0	502	516	0	311	38	6	
0	0	0	0	0	508	516	0	348	38	6	
1	0	0	0	0	518	516	0	383	38	6	
2	0	0	0	0	509	516	0	406	38	7	
3	0	0	0	0	517	517	0	431	38	8	
4	0	0	0	0	501	516	0	452	38	8	
5	0	0	0	0	507	516	0	472	38	8	
6	0	0	0	0	514	517	0	492	38	8	
7	0	0	0	0	515	517	0	524	38	7	
8	0	0	0	0	513	517	0	542	38	7	
9	0	0	0	0	511	517	0	557	38	6	
10	0	0	0	0	503	517	0	560	38	6	
11	0	0	0	0	512	516	0	552	38	6	
12	0	0	0	0	507	516	0	551	38	7	
13	0	0	0	0	503	516	0	557	38	8	
14	0	0	0	0	502	517	0	542	38	8	
15	0	0	0	0	508	517	0	504	38	8	
0	0	0	0	0	507	517	0	417	38	8	
1	0	0	0	0	518	516	0	341	38	7	
2	0	0	0	0	512	516	0	311	38	7	
3	0	0	0	0	511	515	0	295	38	6	
4	0	0	0	0	503	516	0	276	38	6	
5	0	0	0	0	511	515	0	284	38	6	
6	0	0	0	0	513	515	0	312	38	7	
7	0	0	0	0	513	515	0	335	38	8	
8	0	0	0	0	515	515	0	366	38	8	
9	0	0	0	0	508	515	0	404	38	8	
10	0	0	0	0	513	516	0	434	38	8	
11	0	0	0	0	503	516	0	456	38	7	
12	0	0	0	0	512	516	0	474	38	7	
13	0	0	0	0	514	515	0	491	38	6	
14	0	0	0	0	500	515	0	488	38	6	
15	0	0	0	0	503	515	0	470	38	6	
0	0	0	0	0	506	515	0	457	38	7	
1	0	0	0	0	502	515	0	475	38	8	
2	0	0	0	0	504	515	0	489	38	8	
3	0	0	0	0	504	514	0	451	38	8	
4	0	0	0	0	514	514	0	378	38	8	
5	0	0	0	0	515	513	0	305	38	7	
6	0	0	0	0	510	514	0	251	38	7	
7	0	0	0	0	510	514	0	210	38	6	
8	0	0	0	0	511	514	0	225	38	6	
9	0	0	0	0	512	515	0	261	38	6	
10	0	0	0	0	511	515	0	299	38	7	
11	0	0	0	0	506	515	0	348	38	8	
12	0	0	0	0	509	515	0	382	38	8	
13	0	0	0	0	511	516	0	418	38	8	
14	0	0	0	0	510	516	0	451	38	8	
15	0	0	0	0	519	516	0	491	38	7	
0	0	0	0	0	508	516	0	543	38	7	
1	0	0	0	0	506	515	0	586	38	6	
2	0	0	0	0	500	516	0	603	38	6	
3	0	0	0	0	509	515	0	600	38	6	
4	0	0	0	0	504	515	0	560	38	7	
5	0	0	0	0	500	515	0	522	38	8	
6	0	0	0	0	505	515	0	513	38	8	
7	0	0	0	0	513	516	0	515	38	8	
8	0	0	0	0	515	517	0	495	38	8	
9	0	0	0	0	508	516	0	449	38	7	
10	0	0	0	0	516	516	0	381	38	7	
11	0	0	0	0	508	516	0	335	38	6	
12	0	0	0	0	510	515	0	340	38	6	
13	0	0	0	0	512	516	0	378	38	6	
14	0	0	0	0	515	516	0	429	38	7	
15	0	0	0	0	516	515	0	481	38	8	
0	0	0	0	0	501	516	0	496	38	8	
1	0	0	0	0	514	515	0	488	38	8	
2	0	0	0	0	513	516	0	476	38	8	
3	0	0	0	0	515	516	0	468	38	7	
4	0	0	0	0	506	516	0	472	38	7	
5	0	0	0	0	505	516	0	498	38	6	
6	0	0	0	0	495	516	0	554	38	6	
7	0	0	0	0	508	516	0	618	38	6	
8	0	0	0	0	510	516	0	619	38	7	
9	0	0	0	0	509	517	0	603	38	8	
10	0	0	0	0	504	517	0	549	38	8	
11	0	0	0	0	499	517	0	470	38	8	
12	0	0	0	0	513	518	0	407	38	8	
13	0	0	0	0	511	517	0	384	38	7	
14	0	0	0	0	514	517	0	397	38	7	
15	0	0	0	0	506	518	0	415	38	6	
0	0	0	0	0	508	517	0	423	38	6	
1	0	0	0	0	513	516	0	438	38	6	
2	0	0	0	0	513	516	0	463	38	7	
3	0	0	0	0	504	517	0	482	38	8	
4	0	0	0	0	509	517	0	478	38	8	
5	0	0	0	0	510	516	0	483	38	8	
6	0	0	0	0	515	517	0	507	38	8	
7	0	0	0	0	517	517	0	538	38	7	
8	0	0	0	0	512	516	0	576	38	7	
9	0	0	0	0	508	517	0	629	38	6	
10	0	0	0	0	508	516	0	689	38	6	
11	0	0	0	0	505	516	0	732	38	6	
12	0	0	0	0	510	516	0	747	38	7	
13	0	0	0	0	507	515	0	713	38	8	
14	0	0	0	0	497	515	0	640	38	8	
15	0	0	0	0	505	516	0	543	38	8	
0	0	0	0	0	504	515	0	455	38	8	
1	0	0	0	0	510	515	0	394	38	7	
2	0	0	0	0	510	515	0	328	38	7	
3	0	0	0	0	512	515	0	263	38	6	
4	0	0	0	0	519	515	0	228	38	6	
5	0	0	0	0	521	516	0	244	38	6	
6	0	0	0	0	508	516	0	300	38	7	
7	0	0	0	0	503	516	0	355	38	8	
8	0	0	0	0	507	515	0	393	38	8	
9	0	0	0	0	511	515	0	412	38	8	
10	0	0	0	0	511	514	0	428	38	8	
11	0	0	0	0	513	515	0	485	38	7	
12	0	0	0	0	511	514	0	566	38	7	
13	0	0	0	0	511	514	0	627	38	6	
14	0	0	0	0	511	514	0	646	38	6	
15	0	0	0	0	514	515	0	635	38	6	
0	0	0	0	0	509	515	0	619	38	7	
1	0	0	0	0	503	515	0	604	38	8	
2	0	0	0	0	502	516	0	590	38	8	
3	0	0	0	0	500	516	0	557	38	8	
4	0	0	0	0	508	515	0	502	38	8	
5	0	0	0	0	518	515	0	451	38	7	
6	0	0	0	0	511	516	0	390	38	7	
7	0	0	0	0	499	516	0	325	38	6	
8	0	0	0	0	515	516	0	280	38	6	
9	0	0	0	0	513	516	0	313	38	6	
10	0	0	0	0	510	516	0	379	38	7	
11	0	0	0	0	506	517	0	423	38	8	
12	0	0	0	0	505	516	0	445	38	8	
13	0	0	0	0	514	516	0	477	38	8	
14	0	0	0	0	514	515	0	517	38	8	
15	0	0	0	0	514	516	0	560	38	7	
0	0	0	0	0	513	516	0	604	38	7	
1	0	0	0	0	506	516	0	650	38	6	
2	0	0	0	0	510	517	0	686	38	6	
3	0	0	0	0	508	516	0	706	38	6	
4	0	0	0	0	507	516	0	699	38	7	
5	0	0	0	0	500	516	0	659	38	8	
6	0	0	0	0	497	515	0	601	38	8	
7	0	0	0	0	511	515	0	502	38	8	
8	0	0	0	0	511	516	0	402	38	8	
9	0	0	0	0	514	516	0	348	38	7	
10	0	0	0	0	511	516	0	324	38	7	
11	0	0	0	0	511	516	0	308	38	6	
12	0	0	0	0	507	515	0	327	38	6	
13	0	0	0	0	508	515	0	364	38	6	
14	0	0	0	0	506	516	0	417	38	7	
15	0	0	0	0	517	515	0	448	38	8	
0	0	0	0	0	510	516	0	471	38	8	
1	0	0	0	0	505	516	0	486	38	8	
2	0	0	0	0	511	516	0	484	38	8	
3	0	0	0	0	508	515	0	486	38	7	
4	0	0	0	0	513	515	0	481	38	7	
5	0	0	0	0	512	515	0	515	38	6	
6	0	0	0	0	512	514	0	585	38	6	
7	0	0	0	0	502	514	0	637	38	6	
8	0	0	0	0	501	513	0	615	38	7	
9	0	0	0	0	504	514	0	586	38	8	
10	0	0	0	0	508	515	0	543	38	8	
11	0	0	0	0	506	515	0	469	38	8	
12	0	0	0	0	512	515	0	379	38	8	
13	0	0	0	0	510	515	0	325	38	7	
14	0	0	0	0	516	515	0	323	38	7	
15	0	0	0	0	515	515	0	350	38	6	
0	0	0	0	0	514	515	0	382	38	6	
1	0	0	0	0	513	515	0	387	38	6	
2	0	0	0	0	509	515	0	400	38	7	
3	0	0	0	0	508	515	0	419	38	8	
4	0	0	0	0	506	516	0	424	38	8	
5	0	0	0	0	511	516	0	424	38	8	
6	0	0	0	0	511	516	0	441	38	8	
7	0	0	0	0	511	516	0	483	38	7	
8	0	0	0	0	518	516	0	552	38	7	
9	0	0	0	0	511	516	0	626	38	6	
10	0	0	0	0	503	518	0	678	38	6	
11	0	0	0	0	507	517	0	721	38	6	
12	0	0	0	0	501	517	0	742	38	7	
13	0	0	0	0	502	517	0	704	38	8	
14	0	0	0	0	504	517	0	634	38	8	
15	0	0	0	0	507	516	0	558	38	8	
0	0	0	0	0	512	516	0	494	38	8	
1	0	0	0	0	505	516	0	455	38	7	
2	0	0	0	0	506	517	0	433	38	7	
3	0	0	0	0	515	517	0	424	38	6	
4	0	0	0	0	504	517	0	447	38	6	
5	0	0	0	0	513	517	0	495	38	6	
6	0	0	0	0	512	518	0	553	38	7	
7	0	0	0	0	505	518	0	579	38	8	
8	0	0	0	0	513	518	0	595	38	8	
9	0	0	0	0	513	519	0	583	38	8	
10	0	0	0	0	510	519	0	556	38	8	
11	0	0	0	0	516	518	0	546	38	7	
12	0	0	0	0	511	517	0	568	38	7	
13	0	0	0	0	503	517	0	610	38	6	
14	0	0	0	0	509	517	0	647	38	6	
15	0	0	0	0	504	516	0	663	38	6	
0	0	0	0	0	507	516	0	640	38	7	
1	0	0	0	0	511	515	0	596	38	8	
2	0	0	0	0	503	515	0	551	38	8	
3	0	0	0	0	509	514	0	471	38	8	
4	0	0	0	0	506	515	0	371	38	8	
5	0	0	0	0	514	515	0	295	38	7	
6	0	0	0	0	512	516	0	273	38	7	
7	0	0	0	0	513	516	0	272	38	6	
8	0	0	0	0	511	516	0	304	38	6	
9	0	0	0	0	515	517	0	364	38	6	
10	0	0	0	0	504	517	0	390	38	7	
11	0	0	0	0	511	517	0	361	38	8	
12	0	0	0	0	497	518	0	335	38	8	
13	0	0	0	0	511	518	0	352	38	8	
14	0	0	0	0	512	516	0	374	38	8	
15	0	0	0	0	519	516	0	378	38	7	
0	0	0	0	0	518	515	0	440	38	7	
1	0	0	0	0	504	515	0	573	38	6	
2	0	0	0	0	505	514	0	703	38	6	
3	0	0	0	0	507	513	0	782	38	6	
4	0	0	0	0	504	513	0	783	38	7	
5	0	0	0	0	506	513	0	691	38	8	
6	0	0	0	0	504	513	0	523	38	8	
7	0	0	0	0	504	514	0	380	38	8	
8	0	0	0	0	513	515	0	336	38	8	
9	0	0	0	0	512	515	0	357	38	7	
10	0	0	0	0	511	515	0	406	38	7	
11	0	0	0	0	512	515	0	457	38	6	
12	0	0	0	0	514	515	0	495	38	6	
13	0	0	0	0	515	515	0	510	38	6	
14	0	0	0	0	511	515	0	519	38	7	
15	0	0	0	0	513	516	0	524	38	8	
0	0	0	0	0	506	515	0	517	38	8	
1	0	0	0	0	508	515	0	519	38	8	
2	0	0	0	0	518	515	0	525	38	8	
3	0	0	0	0	509	515	0	548	38	7	
4	0	0	0	0	516	515	0	589	38	7	
5	0	0	0	0	508	515	0	634	38	6	
6	0	0	0	0	506	515	0	683	38	6	
7	0	0	0	0	501	515	0	738	38	6	
8	0	0	0	0	512	515	0	780	38	7	
9	0	0	0	0	508	516	0	761	38	8	
10	0	0	0	0	508	516	0	704	38	8	
11	0	0	0	0	505	516	0	629	38	8	
12	0	0	0	0	508	516	0	552	38	8	
13	0	0	0	0	507	516	0	489	38	7	
14	0	0	0	0	507	516	0	435	38	7	
15	0	0	0	0	508	517	0	412	38	6	
0	0	0	0	0	508	517	0	419	38	6	
1	0	0	0	0	515	517	0	423	38	6	
2	0	0	0	0	507	517	0	399	38	7	
3	0	0	0	0	510	517	0	336	38	8	
4	0	0	0	0	514	518	0	299	38	8	
5	0	0	0	0	507	518	0	315	38	8	
6	0	0	0	0	511	517	0	357	38	8	
7	0	0	0	0	513	517	0	420	38	7	
8	0	0	0	0	512	517	0	482	38	7	
9	0	0	0	0	513	517	0	544	38	6	
10	0	0	0	0	504	517	0	596	38	6	
11	0	0	0	0	504	517	0	619	38	6	
12	0	0	0	0	504	518	0	611	38	7	
13	0	0	0	0	499	518	0	596	38	8	
14	0	0	0	0	508	518	0	559	38	8	
15	0	0	0	0	504	519	0	491	38	8	
0	0	0	0	0	514	519	0	459	38	8	
1	0	0	0	0	511	519	0	485	38	7	
2	0	0	0	0	514	519	0	495	38	7	
3	0	0	0	0	511	519	0	500	38	6	
4	0	0	0	0	510	519	0	515	38	6	
5	0	0	0	0	517	519	0	516	38	6	
6	0	0	0	0	513	518	0	536	38	7	
7	0	0	0	0	506	518	0	585	38	8	
8	0	0	0	0	508	517	0	611	38	8	
9	0	0	0	0	505	516	0	614	38	8	
10	0	0	0	0	518	516	0	577	38	8	
11	0	0	0	0	521	516	0	564	38	7	
12	0	0	0	0	511	516	0	600	38	7	
13	0	0	0	0	512	516	0	608	38	6	
14	0	0	0	0	505	516	0	635	38	6	
15	0	0	0	0	502	516	0	672	38	6	
0	0	0	0	0	504	516	0	655	38	7	
1	0	0	0	0	507	517	0	568	38	8	
2	0	0	0	0	503	518	0	514	38	8	
3	0	0	0	0	505	518	0	464	38	8	
4	0	0	0	0	512	518	0	376	38	8	
5	0	0	0	0	512	518	0	278	38	7	
6	0	0	0	0	511	517	0	252	38	7	
7	0	0	0	0	509	517	0	281	38	6	
8	0	0	0	0	510	517	0	337	38	6	
9	0	0	0	0	515	518	0	442	38	6	
10	0	0	0	0	506	518	0	478	38	7	
11	0	0	0	0	514	517	0	458	38	8	
12	0	0	0	0	511	517	0	459	38	8	
13	0	0	0	0	513	517	0	483	38	8	
14	0	0	0	0	517	516	0	501	38	8	
15	0	0	0	0	506	516	0	564	38	7	
0	0	0	0	0	511	516	0	636	38	7	
1	0	0	0	0	501	516	0	686	38	6	
2	0	0	0	0	513	516	0	776	38	6	
3	0	0	0	0	512	516	0	826	38	6	
4	0	0	0	0	507	516	0	863	38	7	
5	0	0	0	0	500	516	0	847	38	8	
6	0	0	0	0	502	516	0	808	38	8	
7	0	0	0	0	506	517	0	757	38	8	
8	0	0	0	0	512	516	0	688	38	8	
9	0	0	0	0	513	516	0	630	38	7	
10	0	0	0	0	508	516	0	613	38	7	
11	0	0	0	0	512	516	0	613	38	6	
12	0	0	0	0	508	517	0	631	38	6	
13	0	0	0	0	513	517	0	642	38	6	
14	0	0	0	0	508	516	0	649	38	7	
15	0	0	0	0	511	517	0	658	38	8	
0	0	0	0	0	508	517	0	626	38	8	
1	0	0	0	0	512	518	0	572	38	8	
2	0	0	0	0	511	518	0	531	38	8	
3	0	0	0	0	517	517	0	472	38	7	
4	0	0	0	0	514	517	0	484	38	7	
5	0	0	0	0	504	517	0	579	38	6	
6	0	0	0	0	505	517	0	679	38	6	
7	0	0	0	0	513	516	0	685	38	6	
8	0	0	0	0	500	516	0	649	38	7	
9	0	0	0	0	507	516	0	630	38	8	
10	0	0	0	0	504	516	0	657	38	8	
11	0	0	0	0	509	517	0	691	38	8	
12	0	0	0	0	510	517	0	690	38	8	
13	0	0	0	0	513	517	0	670	38	7	
14	0	0	0	0	523	518	0	654	38	7	
15	0	0	0	0	508	518	0	641	38	6	
0	0	0	0	0	501	517	0	681	38	6	
1	0	0	0	0	507	517	0	732	38	6	
2	0	0	0	0	510	517	0	734	38	7	
3	0	0	0	0	510	517	0	699	38	8	
4	0	0	0	0	511	517	0	682	38	8	
5	0	0	0	0	510	517	0	673	38	8	
6	0	0	0	0	508	516	0	628	38	8	
7	0	0	0	0	519	515	0	565	38	7	
8	0	0	0	0	509	515	0	523	38	7	
9	0	0	0	0	508	515	0	499	38	6	
10	0	0	0	0	510	515	0	499	38	6	
11	0	0	0	0	510	515	0	502	38	6	
12	0	0	0	0	511	515	0	526	38	7	
13	0	0	0	0	506	515	0	578	38	8	
14	0	0	0	0	503	515	0	617	38	8	
15	0	0	0	0	507	515	0	635	38	8	
0	0	0	0	0	512	516	0	596	38	8	
1	0	0	0	0	514	515	0	482	38	7	
2	0	0	0	0	511	516	0	398	38	7	
3	0	0	0	0	504	516	0	344	38	6	
4	0	0	0	0	511	516	0	338	38	6	
5	0	0	0	0	509	517	0	363	38	6	
6	0	0	0	0	514	518	0	413	38	7	
7	0	0	0	0	517	519	0	470	38	8	
8	0	0	0	0	508	518	0	492	38	8	
9	0	0	0	0	512	519	0	529	38	8	
10	0	0	0	0	513	519	0	569	38	8	
11	0	0	0	0	513	518	0	601	38	7	
12	0	0	0	0	515	517	0	650	38	7	
13	0	0	0	0	509	516	0	674	38	6	
14	0	0	0	0	502	515	0	694	38	6	
15	0	0	0	0	506	515	0	688	38	6	
0	0	0	0	0	513	515	0	663	38	7	
1	0	0	0	0	508	515	0	608	38	8	
2	0	0	0	0	501	515	0	537	38	8	
3	0	0	0	0	508	515	0	467	38	8	
4	0	0	0	0	512	515	0	424	38	8	
5	0	0	0	0	509	515	0	387	38	7	
6	0	0	0	0	510	516	0	349	38	7	
7	0	0	0	0	510	515	0	306	38	6	
8	0	0	0	0	510	517	0	327	38	6	
9	0	0	0	0	507	517	0	456	38	6	
10	0	0	0	0	508	516	0	551	38	7	
11	0	0	0	0	508	516	0	606	38	8	
12	0	0	0	0	511	516	0	595	38	8	
13	0	0	0	0	507	517	0	566	38	8	
14	0	0	0	0	513	516	0	543	38	8	
15	0	0	0	0	510	516	0	527	38	7	
0	0	0	0	0	515	516	0	543	38	7	
1	0	0	0	0	505	515	0	555	38	6	
2	0	0	0	0	507	515	0	541	38	6	
3	0	0	0	0	511	515	0	569	38	6	
4	0	0	0	0	505	515	0	647	38	7	
5	0	0	0	0	500	515	0	699	38	8	
6	0	0	0	0	505	514	0	718	38	8	
7	0	0	0	0	503	515	0	707	38	8	
8	0	0	0	0	517	515	0	668	38	8	
9	0	0	0	0	514	515	0	640	38	7	
10	0	0	0	0	516	516	0	643	38	7	
11	0	0	0	0	512	516	0	652	38	6	
12	0	0	0	0	514	516	0	671	38	6	
13	0	0	0	0	507	516	0	684	38	6	
14	0	0	0	0	508	516	0	691	38	7	
15	0	0	0	0	517	517	0	679	38	8	
0	0	0	0	0	505	517	0	644	38	8	
1	0	0	0	0	508	517	0	620	38	8	
2	0	0	0	0	514	518	0	593	38	8	
3	0	0	0	0	517	518	0	604	38	7	
4	0	0	0	0	507	518	0	660	38	7	
5	0	0	0	0	509	517	0	722	38	6	
6	0	0	0	0	504	516	0	781	38	6	
7	0	0	0	0	509	516	0	750	38	6	
8	0	0	0	0	507	515	0	651	38	7	
9	0	0	0	0	505	515	0	592	38	8	
10	0	0	0	0	504	515	0	565	38	8	
11	0	0	0	0	503	516	0	513	38	8	
12	0	0	0	0	511	517	0	449	38	8	
13	0	0	0	0	508	518	0	433	38	7	
14	0	0	0	0	511	518	0	465	38	7	
15	0	0	0	0	514	518	0	495	38	6	
0	0	0	0	0	512	518	0	499	38	6	
1	0	0	0	0	512	517	0	503	38	6	
2	0	0	0	0	509	517	0	511	38	7	
3	0	0	0	0	511	517	0	495	38	8	
4	0	0	0	0	507	516	0	486	38	8	
5	0	0	0	0	509	516	0	500	38	8	
6	0	0	0	0	508	515	0	542	38	8	
7	0	0	0	0	509	514	0	601	38	7	
8	0	0	0	0	512	514	0	670	38	7	
9	0	0	0	0	514	514	0	703	38	6	
10	0	0	0	0	510	514	0	707	38	6	
11	0	0	0	0	502	514	0	699	38	6	
12	0	0	0	0	506	515	0	693	38	7	
13	0	0	0	0	505	515	0	671	38	8	
14	0	0	0	0	511	515	0	610	38	8	
15	0	0	0	0	510	515	0	526	38	8	
0	0	0	0	0	512	515	0	448	38	8	
1	0	0	0	0	507	515	0	400	38	7	
2	0	0	0	0	506	514	0	400	38	7	
3	0	0	0	0	509	514	0	407	38	6	
4	0	0	0	0	504	514	0	404	38	6	
5	0	0	0	0	509	514	0	382	38	6	
6	0	0	0	0	514	514	0	389	38	7	
7	0	0	0	0	516	514	0	451	38	8	
8	0	0	0	0	506	514	0	520	38	8	
9	0	0	0	0	508	513	0	557	38	8	
10	0	0	0	0	512	512	0	584	38	8	
11	0	0	0	0	505	513	0	617	38	7	
12	0	0	0	0	512	513	0	670	38	7	
13	0	0	0	0	508	513	0	652	38	6	
14	0	0	0	0	507	512	0	574	38	6	
15	0	0	0	0	510	513	0	486	38	6	
0	0	0	0	0	504	513	0	462	38	7	
1	0	0	0	0	510	512	0	469	38	8	
2	0	0	0	0	502	512	0	381	38	8	
3	0	0	0	0	503	513	0	324	38	8	
4	0	0	0	0	512	512	0	291	38	8	
5	0	0	0	0	509	512	0	218	38	7	
6	0	0	0	0	512	511	0	195	38	7	
7	0	0	0	0	518	512	0	248	38	6	
8	0	0	0	0	514	512	0	316	38	6	
9	0	0	0	0	508	511	0	347	38	6	
10	0	0	0	0	511	511	0	344	38	7	
11	0	0	0	0	514	511	0	336	38	8	
12	0	0	0	0	510	511	0	325	38	8	
13	0	0	0	0	508	510	0	336	38	8	
14	0	0	0	0	513	510	0	364	38	8	
15	0	0	0	0	503	510	0	405	38	7	
0	0	0	0	0	507	510	0	467	38	7	
1	0	0	0	0	506	510	0	537	38	6	
2	0	0	0	0	506	510	0	584	38	6	
3	0	0	0	0	499	510	0	595	38	6	
4	0	0	0	0	509	510	0	587	38	7	
5	0	0	0	0	512	510	0	545	38	8	
6	0	0	0	0	510	509	0	466	38	8	
7	0	0	0	0	500	510	0	381	38	8	
8	0	0	0	0	516	510	0	284	38	8	
9	0	0	0	0	508	510	0	210	38	7	
10	0	0	0	0	508	511	0	167	38	7	
11	0	0	0	0	510	511	0	143	38	6	
12	0	0	0	0	508	511	0	157	38	6	
13	0	0	0	0	512	510	0	167	38	6	
14	0	0	0	0	512	510	0	177	38	7	
15	0	0	0	0	516	510	0	265	38	8	
0	0	0	0	0	505	511	0	331	38	8	
1	0	0	0	0	505	511	0	386	38	8	
2	0	0	0	0	515	510	0	449	38	8	
3	0	0	0	0	514	510	0	543	38	7	
4	0	0	0	0	516	510	0	646	38	7	
5	0	0	0	0	506	511	0	747	38	6	
6	0	0	0	0	504	510	0	796	38	6	
7	0	0	0	0	511	510	0	759	38	6	
8	0	0	0	0	508	510	0	657	38	7	
9	0	0	0	0	500	510	0	560	38	8	
10	0	0	0	0	509	510	0	497	38	8	
11	0	0	0	0	504	510	0	477	38	8	
12	0	0	0	0	508	511	0	465	38	8	
13	0	0	0	0	516	510	0	435	38	7	
14	0	0	0	0	508	511	0	414	38	7	
15	0	0	0	0	512	510	0	401	38	6	
0	0	0	0	0	500	511	0	382	38	6	
1	0	0	0	0	513	511	0	385	38	6	
2	0	0	0	0	508	509	0	418	38	7	
3	0	0	0	0	515	510	0	423	38	8	
4	0	0	0	0	512	510	0	415	38	8	
5	0	0	0	0	508	511	0	422	38	8	
6	0	0	0	0	514	511	0	444	38	8	
7	0	0	0	0	513	511	0	482	38	7	
8	0	0	0	0	511	511	0	528	38	7	
9	0	0	0	0	504	511	0	594	38	6	
10	0	0	0	0	510	511	0	623	38	6	
11	0	0	0	0	507	510	0	668	38	6	
12	0	0	0	0	500	510	0	703	38	7	
13	0	0	0	0	504	510	0	707	38	8	
14	0	0	0	0	507	510	0	661	38	8	
15	0	0	0	0	500	510	0	604	38	8	
0	0	0	0	0	519	510	0	537	38	8	
1	0	0	0	0	510	510	0	493	38	7	
2	0	0	0	0	515	510	0	481	38	7	
3	0	0	0	0	517	510	0	504	38	6	
4	0	0	0	0	505	511	0	545	38	6	
5	0	0	0	0	510	511	0	584	38	6	
6	0	0	0	0	508	511	0	629	38	7	
7	0	0	0	0	507	511	0	652	38	8	
8	0	0	0	0	509	511	0	614	38	8	
9	0	0	0	0	507	511	0	549	38	8	
10	0	0	0	0	517	511	0	503	38	8	
11	0	0	0	0	521	510	0	506	38	7	
12	0	0	0	0	505	510	0	536	38	7	
13	0	0	0	0	505	509	0	558	38	6	
14	0	0	0	0	515	509	0	588	38	6	
15	0	0	0	0	511	509	0	585	38	6	
0	0	0	0	0	505	510	0	579	38	7	
1	0	0	0	0	505	510	0	590	38	8	
2	0	0	0	0	500	510	0	560	38	8	
3	0	0	0	0	502	510	0	443	38	8	
4	0	0	0	0	513	510	0	302	38	8	
5	0	0	0	0	514	510	0	239	38	7	
6	0	0	0	0	510	509	0	287	38	7	
7	0	0	0	0	514	509	0	394	38	6	
8	0	0	0	0	512	509	0	473	38	6	
9	0	0	0	0	504	509	0	496	38	6	
10	0	0	0	0	513	508	0	505	38	7	
11	0	0	0	0	511	508	0	527	38	8	
12	0	0	0	0	508	507	0	528	38	8	
13	0	0	0	0	506	507	0	520	38	8	
14	0	0	0	0	512	507	0	498	38	8	
15	0	0	0	0	515	508	0	494	38	7	
0	0	0	0	0	514	508	0	524	38	7	
1	0	0	0	0	511	507	0	564	38	6	
2	0	0	0	0	502	508	0	583	38	6	
3	0	0	0	0	507	507	0	590	38	6	
4	0	0	0	0	505	507	0	575	38	7	
5	0	0	0	0	501	507	0	551	38	8	
6	0	0	0	0	511	507	0	525	38	8	
7	0	0	0	0	513	507	0	503	38	8	
8	0	0	0	0	509	507	0	493	38	8	
9	0	0	0	0	511	508	0	505	38	7	
10	0	0	0	0	502	508	0	540	38	7	
11	0	0	0	0	511	508	0	573	38	6	
12	0	0	0	0	511	508	0	590	38	6	
13	0	0	0	0	511	508	0	599	38	6	
14	0	0	0	0	518	507	0	623	38	7	
15	0	0	0	0	507	507	0	667	38	8	
0	0	0	0	0	508	508	0	691	38	8	
1	0	0	0	0	513	508	0	712	38	8	
2	0	0	0	0	519	508	0	760	38	8	
3	0	0	0	0	509	508	0	818	38	7	
4	0	0	0	0	510	509	0	893	38	7	
5	0	0	0	0	512	509	0	943	38	6	
6	0	0	0	0	505	508	0	938	38	6	
7	0	0	0	0	503	507	0	807	38	6	
8	0	0	0	0	499	507	0	671	38	7	
9	0	0	0	0	509	508	0	572	38	8	
10	0	0	0	0	507	507	0	504	38	8	
11	0	0	0	0	501	507	0	445	38	8	
12	0	0	0	0	515	508	0	399	38	8	
13	0	0	0	0	510	508	0	360	38	7	
14	0	0	0	0	508	508	0	334	38	7	
15	0	0	0	0	508	507	0	347	38	6	
0	0	0	0	0	514	507	0	363	38	6	
1	0	0	0	0	511	507	0	376	38	6	
2	0	0	0	0	511	505	0	387	38	7	
3	0	0	0	0	511	506	0	399	38	8	
4	0	0	0	0	509	506	0	407	38	8	
5	0	0	0	0	506	505	0	412	38	8	
6	0	0	0	0	510	504	0	429	38	8	
7	0	0	0	0	513	504	0	445	38	7	
8	0	0	0	0	516	504	0	445	38	7	
9	0	0	0	0	513	504	0	499	38	6	
10	0	0	0	0	509	504	0	524	38	6	
11	0	0	0	0	506	504	0	535	38	6	
12	0	0	0	0	505	504	0	522	38	7	
13	0	0	0	0	500	505	0	451	38	8	
14	0	0	0	0	513	506	0	384	38	8	
15	0	0	0	0	499	508	0	313	38	8	
0	0	0	0	0	510	508	0	232	38	8	
1	0	0	0	0	511	509	0	225	38	7	
2	0	0	0	0	510	510	0	279	38	7	
3	0	0	0	0	514	509	0	415	38	6	
4	0	0	0	0	509	508	0	543	38	6	
5	0	0	0	0	516	508	0	599	38	6	
6	0	0	0	0	511	507	0	639	38	7	
7	0	0	0	0	507	507	0	675	38	8	
8	0	0	0	0	512	506	0	694	38	8	
9	0	0	0	0	514	506	0	703	38	8	
10	0	0	0	0	517	506	0	711	38	8	
11	0	0	0	0	515	506	0	724	38	7	
12	0	0	0	0	509	507	0	743	38	7	
13	0	0	0	0	509	507	0	759	38	6	
14	0	0	0	0	503	507	0	754	38	6	
15	0	0	0	0	503	507	0	733	38	6	
0	0	0	0	0	510	507	0	701	38	7	
1	0	0	0	0	500	507	0	662	38	8	
2	0	0	0	0	498	507	0	600	38	8	
3	0	0	0	0	513	507	0	536	38	8	
4	0	0	0	0	516	507	0	475	38	8	
5	0	0	0	0	511	506	0	425	39	7	
6	0	0	0	0	514	505	0	399	38	7	
7	0	0	0	0	510	505	0	387	38	6	
8	0	0	0	0	505	505	0	387	38	6	
9	0	0	0	0	509	505	0	395	38	6	
10	0	0	0	0	511	505	0	401	38	7	
11	0	0	0	0	509	506	0	408	39	8	
12	0	0	0	0	510	506	0	408	39	8	
13	0	0	0	0	507	507	0	411	39	8	
14	0	0	0	0	512	507	0	437	39	8	
15	0	0	0	0	515	507	0	451	38	7	
0	0	0	0	0	513	507	0	499	39	7	
1	0	0	0	0	506	507	0	547	38	6	
2	0	0	0	0	504	508	0	584	39	6	
3	0	0	0	0	510	507	0	600	39	6	
4	0	0	0	0	511	506	0	597	39	7	
5	0	0	0	0	503	506	0	577	39	8	
6	0	0	0	0	506	505	0	546	39	8	
7	0	0	0	0	507	505	0	507	39	8	
8	0	0	0	0	511	505	0	457	39	8	
9	0	0	0	0	511	505	0	432	39	7	
10	0	0	0	0	510	505	0	432	39	7	
11	0	0	0	0	512	504	0	446	39	6	
12	0	0	0	0	513	505	0	467	39	6	
13	0	0	0	0	512	505	0	483	39	6	
14	0	0	0	0	513	505	0	503	39	7	
15	0	0	0	0	504	505	0	530	39	8	
0	0	0	0	0	504	504	0	549	39	8	
1	0	0	0	0	505	504	0	562	39	8	
2	0	0	0	0	520	504	0	575	39	8	
3	0	0	0	0	511	503	0	606	39	7	
4	0	0	0	0	510	502	0	647	39	7	
5	0	0	0	0	516	502	0	682	39	6	
6	0	0	0	0	514	502	0	696	39	6	
7	0	0	0	0	505	502	0	690	39	6	
8	0	0	0	0	510	503	0	681	39	7	
9	0	0	0	0	503	503	0	673	39	8	
10	0	0	0	0	503	503	0	659	39	8	
11	0	0	0	0	500	503	0	623	39	8	
12	0	0	0	0	509	503	0	576	39	8	
13	0	0	0	0	507	503	0	550	39	7	
14	0	0	0	0	514	504	0	545	39	7	
15	0	0	0	0	511	504	0	551	39	6	
0	0	0	0	0	510	504	0	556	39	6	
1	0	0	0	0	514	505	0	552	39	6	
2	0	0	0	0	510	505	0	562	39	7	
3	0	0	0	0	509	506	0	583	39	8	
4	0	0	0	0	509	506	0	559	39	8	
5	0	0	0	0	508	506	0	515	39	8	
6	0	0	0	0	514	506	0	477	39	8	
7	0	0	0	0	519	505	0	488	39	7	
8	0	0	0	0	513	505	0	547	39	7	
9	0	0	0	0	505	504	0	582	39	6	
10	0	0	0	0	503	504	0	600	39	6	
11	0	0	0	0	506	504	0	605	39	6	
12	0	0	0	0	504	504	0	603	39	7	
13	0	0	0	0	512	504	0	579	40	8	
14	0	0	0	0	507	504	0	536	39	8	
15	0	0	0	0	511	504	0	481	39	8	
0	0	0	0	0	504	504	0	427	39	8	
1	0	0	0	0	515	505	0	391	39	7	
2	0	0	0	0	516	504	0	382	39	7	
3	0	0	0	0	511	505	0	401	39	6	
4	0	0	0	0	511	504	0	404	39	6	
5	0	0	0	0	516	503	0	421	40	6	
6	0	0	0	0	502	501	0	438	39	7	
7	0	0	0	0	508	501	0	459	39	8	
8	0	0	0	0	513	501	0	476	39	8	
9	0	0	0	0	512	500	0	483	39	8	
10	0	0	0	0	514	499	0	487	39	8	
11	0	0	0	0	507	498	0	498	40	7	
12	0	0	0	0	513	499	0	522	40	7	
13	0	0	0	0	503	499	0	551	40	6	
14	0	0	0	0	505	501	0	574	40	6	
15	0	0	0	0	511	503	0	596	40	6	
0	0	0	0	0	509	503	0	603	40	7	
1	0	0	0	0	506	504	0	584	39	8	
2	0	0	0	0	501	506	0	547	40	8	
3	0	0	0	0	508	507	0	486	40	8	
4	0	0	0	0	506	507	0	417	40	8	
5	0	0	0	0	515	507	0	369	40	7	
6	0	0	0	0	511	507	0	346	40	7	
7	0	0	0	0	515	508	0	334	40	6	
8	0	0	0	0	514	507	0	336	40	6	
9	0	0	0	0	510	507	0	348	40	6	
10	0	0	0	0	513	508	0	371	40	7	
11	0	0	0	0	508	507	0	371	40	8	
12	0	0	0	0	503	507	0	382	40	8	
13	0	0	0	0	502	507	0	393	40	8	
14	0	0	0	0	522	506	0	406	40	8	
15	0	0	0	0	511	506	0	430	40	7	
0	0	0	0	0	516	506	0	466	40	7	
1	0	0	0	0	511	507	0	509	40	6	
2	0	0	0	0	508	506	0	555	40	6	
3	0	0	0	0	506	506	0	588	40	6	
4	0	0	0	0	504	505	0	612	40	7	
5	0	0	0	0	502	505	0	619	40	8	
6	0	0	0	0	498	504	0	592	40	8	
7	0	0	0	0	501	504	0	535	40	8	
8	0	0	0	0	512	504	0	452	40	8	
9	0	0	0	0	513	504	0	388	39	7	
10	0	0	0	0	510	504	0	355	39	7	
11	0	0	0	0	508	504	0	343	39	6	
12	0	0	0	0	512	504	0	357	39	6	
13	0	0	0	0	513	504	0	380	39	6	
14	0	0	0	0	506	504	0	401	39	7	
15	0	0	0	0	513	504	0	414	39	8	
0	0	0	0	0	513	503	0	414	39	8	
1	0	0	0	0	505	504	0	403	39	8	
2	0	0	0	0	510	503	0	399	39	8	
3	0	0	0	0	519	503	0	412	39	7	
4	0	0	0	0	512	502	0	445	39	7	
5	0	0	0	0	500	503	0	476	39	6	
6	0	0	0	0	508	503	0	499	39	6	
7	0	0	0	0	513	503	0	500	39	6	
8	0	0	0	0	505	502	0	490	39	7	
9	0	0	0	0	502	502	0	461	39	7	
10	0	0	0	0	508	503	0	420	39	8	
11	0	0	0	0	498	504	0	365	39	8	
12	0	0	0	0	515	505	0	318	38	8	
13	0	0	0	0	514	506	0	304	38	7	
14	0	0	0	0	510	506	0	306	38	7	
15	0	0	0	0	512	506	0	325	38	6	
0	0	0	0	0	511	505	0	355	38	6	
1	0	0	0	0	511	505	0	386	38	6	
2	0	0	0	0	506	504	0	409	38	7	
3	0	0	0	0	512	504	0	411	38	7	
4	0	0	0	0	510	504	0	396	38	8	
5	0	0	0	0	503	503	0	381	38	8	
6	0	0	0	0	510	503	0	371	38	8	
7	0	0	0	0	513	503	0	378	38	7	
8	0	0	0	0	513	504	0	400	38	7	
9	0	0	0	0	508	504	0	429	37	6	
10	0	0	0	0	512	504	0	455	38	6	
11	0	0	0	0	505	504	0	466	38	6	
12	0	0	0	0	504	504	0	463	38	7	
13	0	0	0	0	502	504	0	444	38	7	
14	0	0	0	0	510	504	0	409	37	8	
15	0	0	0	0	505	504	0	365	37	8	
0	0	0	0	0	505	504	0	316	37	8	
1	0	0	0	0	520	504	0	289	37	7	
2	0	0	0	0	511	504	0	286	37	7	
3	0	0	0	0	507	505	0	298	37	6	
4	0	0	0	0	510	505	0	315	37	6	
5	0	0	0	0	505	506	0	336	37	6	
6	0	0	0	0	512	506	0	356	37	7	
7	0	0	0	0	516	506	0	374	37	7	
8	0	0	0	0	504	505	0	393	37	8	
9	0	0	0	0	510	504	0	412	37	8	
10	0	0	0	0	514	504	0	425	37	8	
11	0	0	0	0	509	504	0	447	37	7	
12	0	0	0	0	509	504	0	484	37	6	
13	0	0	0	0	511	504	0	528	37	6	
14	0	0	0	0	507	504	0	568	37	6	
15	0	0	0	0	507	504	0	588	37	6	
0	0	0	0	0	507	503	0	586	37	7	
1	0	0	0	0	510	503	0	561	37	7	
2	0	0	0	0	505	503	0	516	37	8	
3	0	0	0	0	505	502	0	460	37	8	
4	0	0	0	0	508	502	0	404	37	8	
5	0	0	0	0	512	502	0	367	37	7	
6	0	0	0	0	510	502	0	354	37	6	
7	0	0	0	0	510	501	0	360	37	6	
8	0	0	0	0	515	502	0	377	37	6	
9	0	0	0	0	510	502	0	386	37	6	
10	0	0	0	0	505	502	0	390	37	7	
11	0	0	0	0	510	502	0	387	37	7	
12	0	0	0	0	508	502	0	375	37	8	
13	0	0	0	0	507	502	0	362	37	8	
14	0	0	0	0	516	502	0	355	37	8	
15	0	0	0	0	515	503	0	367	37	7	
0	0	0	0	0	513	504	0	404	37	6	
1	0	0	0	0	505	504	0	454	37	6	
2	0	0	0	0	508	504	0	495	37	6	
3	0	0	0	0	505	503	0	539	37	6	
4	0	0	0	0	507	503	0	542	37	7	
5	0	0	0	0	501	503	0	530	37	7	
6	0	0	0	0	505	503	0	489	37	8	
7	0	0	0	0	506	503	0	431	37	8	
8	0	0	0	0	515	504	0	372	37	8	
9	0	0	0	0	515	504	0	321	37	7	
10	0	0	0	0	508	504	0	291	37	6	
11	0	0	0	0	516	503	0	285	37	6	
12	0	0	0	0	512	503	0	280	36	6	
13	0	0	0	0	518	502	0	292	37	6	
14	0	0	0	0	511	502	0	312	36	7	
15	0	0	0	0	505	502	0	335	36	7	
0	0	0	0	0	508	502	0	352	36	8	
1	0	0	0	0	508	502	0	363	36	8	
2	0	0	0	0	513	503	0	372	36	8	
3	0	0	0	0	511	503	0	393	36	7	
4	0	0	0	0	511	503	0	427	36	6	
5	0	0	0	0	513	503	0	464	36	6	
6	0	0	0	0	508	503	0	488	36	6	
7	0	0	0	0	504	503	0	500	36	6	
8	0	0	0	0	503	503	0	501	36	7	
9	0	0	0	0	509	504	0	488	36	7	
10	0	0	0	0	500	504	0	456	37	8	
11	0	0	0	0	504	503	0	407	37	8	
12	0	0	0	0	518	503	0	349	37	8	
13	0	0	0	0	518	503	0	304	37	7	
14	0	0	0	0	512	503	0	280	37	6	
15	0	0	0	0	512	503	0	278	37	6	
0	0	0	0	0	514	503	0	297	37	6	
1	0	0	0	0	508	504	0	329	37	6	
2	0	0	0	0	507	504	0	369	37	7	
3	0	0	0	0	510	504	0	415	37	7	
4	0	0	0	0	505	503	0	458	37	8	
5	0	0	0	0	500	503	0	484	37	8	
6	0	0	0	0	513	503	0	490	37	8	
7	0	0	0	0	512	502	0	499	37	7	
8	0	0	0	0	515	502	0	531	37	6	
9	0	0	0	0	516	501	0	575	36	6	
10	0	0	0	0	514	501	0	611	37	6	
11	0	0	0	0	506	501	0	640	37	6	
12	0	0	0	0	496	502	0	641	37	7	
13	0	0	0	0	508	502	0	615	37	7	
14	0	0	0	0	502	501	0	583	37	8	
15	0	0	0	0	509	502	0	502	37	8	
0	0	0	0	0	513	502	0	435	37	8	
1	0	0	0	0	515	503	0	393	37	7	
2	0	0	0	0	515	503	0	371	37	6	
3	0	0	0	0	510	502	0	367	37	6	
4	0	0	0	0	507	502	0	378	37	6	
5	0	0	0	0	514	503	0	406	37	6	
6	0	0	0	0	504	503	0	440	37	7	
7	0	0	0	0	505	503	0	460	37	7	
8	0	0	0	0	508	504	0	465	37	8	
9	0	0	0	0	513	504	0	451	37	8	
10	0	0	0	0	511	504	0	429	37	8	
11	0	0	0	0	519	504	0	419	37	7	
12	0	0	0	0	518	503	0	428	37	6	
13	0	0	0	0	510	503	0	447	37	6	
14	0	0	0	0	505	502	0	467	37	6	
15	0	0	0	0	511	502	0	481	37	6	
0	0	0	0	0	508	502	0	484	37	7	
1	0	0	0	0	503	502	0	467	37	7	
2	0	0	0	0	507	501	0	420	37	8	
3	0	0	0	0	503	501	0	359	37	8	
4	0	0	0	0	507	502	0	299	37	8	
5	0	0	0	0	512	502	0	260	37	7	
6	0	0	0	0	510	502	0	251	37	6	
7	0	0	0	0	514	502	0	240	37	6	
8	0	0	0	0	510	502	0	241	37	6	
9	0	0	0	0	511	502	0	251	37	6	
10	0	0	0	0	507	502	0	250	37	7	
11	0	0	0	0	511	502	0	236	37	7	
12	0	0	0	0	513	503	0	213	37	8	
13	0	0	0	0	508	503	0	177	37	8	
