# OpenSignals Text File Format. Version 1
# {"98:D3:C1:FD:2F:E5": {"position": 0, "device": "bitalino_rev", "device name": "98:D3:C1:FD:2F:E5", "device connection": "/dev/tty.BITalino-2F-E5-DevB", "sampling rate": 1000, "resolution": [4, 1, 1, 1, 1, 10, 10, 10, 10, 6, 6], "firmware version": 1281, "comments": "", "keywords": "", "mode": 0, "sync interval": 2, "date": "2020-9-15", "time": "11:24:25.521", "channels": [1, 2, 3, 4, 5, 6], "sensor": ["RAW", "RAW", "RAW", "RAW", "RAW", "RAW"], "label": ["A1", "A2", "A3", "A4", "A5", "A6"], "column": ["nSeq", "I1", "I2", "O1", "O2", "A1", "A2", "A3", "A4", "A5", "A6"], "special": [{}, {}, {}, {}, {}, {}], "digital IO": [0, 0, 1, 1]}}
# EndOfHeader
0	0	0	0	0	509	500	0	499	37	50	
1	0	0	0	0	504	499	0	501	37	50	
2	0	0	0	0	508	499	0	501	37	50	
3	0	0	0	0	508	499	0	501	37	50	
4	0	0	0	0	501	500	0	500	37	50	
5	0	0	0	0	504	501	0	499	37	50	
6	0	0	0	0	508	500	0	499	37	50	
7	0	0	0	0	508	500	0	500	37	50	
8	0	0	0	0	514	501	0	499	37	50	
9	0	0	0	0	506	502	0	498	37	50	
10	0	0	0	0	506	502	0	497	37	50	
11	0	0	0	0	505	502	0	497	37	50	
12	0	0	0	0	504	499	0	496	37	50	
13	0	0	0	0	505	499	0	495	37	50	
14	0	0	0	0	503	499	0	495	37	50	
15	0	0	0	0	508	499	0	496	37	50	
0	0	0	0	0	505	500	0	495	37	50	
1	0	0	0	0	505	500	0	496	37	50	
2	0	0	0	0	507	501	0	514	37	50	
3	0	0	0	0	504	502	0	529	37	50	
4	0	0	0	0	505	503	0	537	37	50	
5	0	0	0	0	504	504	0	540	37	50	
6	0	0	0	0	506	505	1	543	37	50	
7	0	0	0	0	506	506	0	545	37	50	
8	0	0	0	0	503	506	0	547	37	50	
9	0	0	0	0	507	507	0	542	37	50	
10	0	0	0	0	503	507	0	533	37	50	
11	0	0	0	0	507	508	0	524	37	50	
12	0	0	0	0	504	508	0	515	37	50	
13	0	0	0	0	509	506	0	507	37	50	
14	0	0	0	0	505	506	0	500	37	50	
15	0	0	0	0	511	505	0	497	37	50	
0	0	0	0	0	506	506	0	495	37	50	
1	0	0	0	0	508	505	0	492	37	50	
2	0	0	0	0	502	508	0	490	37	50	
3	0	0	0	0	504	508	0	490	37	50	
4	0	0	0	0	504	507	0	490	37	50	
5	0	0	0	0	504	507	0	493	37	50	
6	0	0	0	0	503	504	0	511	37	50	
7	0	0	0	0	504	504	0	534	37	50	
8	0	0	0	0	505	503	0	554	37	50	
9	0	0	0	0	508	503	0	570	37	50	
10	0	0	0	0	507	504	0	582	37	50	
11	0	0	0	0	513	504	0	587	37	50	
12	0	0	0	0	504	504	0	591	37	50	
13	0	0	0	0	502	502	0	592	37	50	
14	0	0	0	0	506	501	0	592	37	50	
15	0	0	0	0	508	499	0	592	37	50	
0	0	0	0	0	506	500	0	590	37	50	
1	0	0	0	0	504	500	0	590	37	50	
2	0	0	0	0	504	501	0	590	37	50	
3	0	0	0	0	504	499	0	589	37	50	
4	0	0	0	0	507	499	0	589	37	50	
5	0	0	0	0	504	497	0	589	37	50	
6	0	0	0	0	511	498	0	588	37	50	
7	0	0	0	0	503	499	0	575	37	50	
8	0	0	0	0	503	499	0	556	37	50	
9	0	0	0	0	499	499	1	536	37	50	
10	0	0	0	0	508	499	0	520	37	50	
11	0	0	0	0	507	499	0	508	37	50	
12	0	0	0	0	500	498	0	500	37	50	
13	0	0	0	0	501	498	0	496	37	50	
14	0	0	0	0	508	499	0	493	37	50	
15	0	0	0	0	508	500	0	491	37	50	
0	0	0	0	0	505	501	0	490	37	50	
1	0	0	0	0	499	499	0	490	37	50	
2	0	0	0	0	504	497	0	491	37	50	
3	0	0	0	0	505	496	0	492	37	50	
4	0	0	0	0	508	495	0	493	37	50	
5	0	0	0	0	506	495	0	494	37	50	
6	0	0	0	0	506	493	0	495	37	50	
7	0	0	0	0	503	492	0	496	37	50	
8	0	0	0	0	507	494	0	496	37	50	
9	0	0	0	0	510	494	0	496	37	50	
10	0	0	0	0	504	495	0	495	37	50	
11	0	0	0	0	502	496	0	496	37	50	
12	0	0	0	0	501	498	0	492	37	50	
13	0	0	0	0	512	499	0	488	37	50	
14	0	0	0	0	504	501	0	501	37	50	
15	0	0	0	0	503	503	0	515	37	50	
0	0	0	0	0	506	504	0	525	37	50	
1	0	0	0	0	503	504	0	544	37	50	
2	0	0	0	0	507	504	0	550	37	50	
3	0	0	0	0	502	503	0	557	37	49	
4	0	0	0	0	505	502	0	560	37	49	
5	0	0	0	0	511	500	0	556	37	49	
6	0	0	0	0	503	497	0	563	37	49	
7	0	0	0	0	507	494	0	556	37	49	
8	0	0	0	0	510	490	0	556	37	49	
9	0	0	0	0	509	485	0	560	37	49	
10	0	0	0	0	507	476	0	558	37	49	
11	0	0	0	0	505	467	0	573	37	49	
12	0	0	0	0	507	456	1	560	37	49	
13	0	0	0	0	504	446	0	559	37	49	
14	0	0	0	0	512	437	0	560	37	49	
15	0	0	0	0	509	431	1	556	37	49	
0	0	0	0	0	507	427	1	549	37	49	
1	0	0	0	0	504	422	0	545	37	49	
2	0	0	0	0	505	419	0	543	37	49	
3	0	0	0	0	509	416	0	540	37	49	
4	0	0	0	0	505	414	0	534	37	49	
5	0	0	0	0	497	411	0	524	37	49	
6	0	0	0	0	504	408	0	513	37	49	
7	0	0	0	0	514	408	1	502	37	49	
8	0	0	0	0	496	407	0	495	37	49	
9	0	0	0	0	501	406	0	488	37	49	
10	0	0	0	0	510	408	0	485	37	49	
11	0	0	0	0	510	409	0	483	38	49	
12	0	0	0	0	505	411	0	481	38	49	
13	0	0	0	0	512	413	0	481	38	49	
14	0	0	0	0	507	415	0	481	38	49	
15	0	0	0	0	507	416	0	481	38	49	
0	0	0	0	0	511	415	0	481	38	49	
1	0	0	0	0	500	419	0	481	38	49	
2	0	0	0	0	507	428	0	480	38	49	
3	0	0	0	0	504	437	1	480	38	49	
4	0	0	0	0	509	449	0	481	38	49	
5	0	0	0	0	502	463	0	482	38	49	
6	0	0	0	0	498	478	0	487	38	49	
7	0	0	0	0	503	493	0	481	38	49	
8	0	0	0	0	510	508	0	478	38	49	
9	0	0	0	0	502	523	0	479	38	49	
10	0	0	0	0	504	539	0	478	38	49	
11	0	0	0	0	503	554	0	479	38	49	
12	0	0	0	0	511	569	0	480	38	49	
13	0	0	0	0	510	583	0	480	38	49	
14	0	0	0	0	496	592	0	481	38	49	
15	0	0	0	0	513	600	0	499	38	49	
0	0	0	0	0	508	607	0	527	38	49	
1	0	0	0	0	506	611	0	533	38	49	
2	0	0	0	0	510	618	0	534	38	49	
3	0	0	0	0	504	620	0	548	38	49	
4	0	0	0	0	504	621	0	547	38	49	
5	0	0	0	0	507	621	0	551	38	49	
6	0	0	0	0	510	619	0	555	37	49	
7	0	0	0	0	512	614	0	556	37	49	
8	0	0	0	0	503	608	0	560	37	49	
9	0	0	0	0	505	601	0	557	37	49	
10	0	0	0	0	504	596	0	561	37	49	
11	0	0	0	0	506	592	0	563	37	49	
12	0	0	0	0	506	587	0	558	37	49	
13	0	0	0	0	507	583	0	564	37	49	
14	0	0	0	0	504	580	0	555	37	49	
15	0	0	0	0	503	577	0	556	37	49	
0	0	0	0	0	509	575	0	559	37	49	
1	0	0	0	0	508	571	0	556	37	49	
2	0	0	0	0	509	568	0	564	37	49	
3	0	0	0	0	508	563	0	561	37	49	
4	0	0	0	0	505	561	0	556	37	49	
5	0	0	0	0	509	560	0	555	37	49	
6	0	0	0	0	505	556	0	560	37	49	
7	0	0	0	0	501	552	0	569	37	49	
8	0	0	0	0	507	545	0	547	37	49	
9	0	0	0	0	499	538	0	543	37	49	
10	0	0	0	0	508	532	0	551	37	49	
11	0	0	0	0	515	528	0	539	37	49	
12	0	0	0	0	509	524	0	535	37	49	
13	0	0	0	0	500	520	0	525	37	49	
14	0	0	0	0	502	516	0	514	37	49	
15	0	0	0	0	502	514	0	504	37	49	
0	0	0	0	0	503	510	0	510	37	49	
1	0	0	0	0	502	508	0	504	37	49	
2	0	0	0	0	510	506	0	483	37	49	
3	0	0	0	0	509	504	0	478	37	49	
4	0	0	0	0	510	502	0	476	37	49	
5	0	0	0	0	506	498	0	474	37	49	
6	0	0	0	0	507	494	0	470	37	49	
7	0	0	0	0	506	491	0	466	37	49	
8	0	0	0	0	507	488	0	465	37	49	
9	0	0	0	0	502	486	0	467	37	49	
10	0	0	0	0	504	483	0	470	37	49	
11	0	0	0	0	500	483	0	473	37	49	
12	0	0	0	0	509	480	0	474	37	49	
13	0	0	0	0	510	478	0	473	37	49	
14	0	0	0	0	520	478	0	470	37	49	
15	0	0	0	0	481	476	0	467	37	49	
0	0	0	0	0	480	472	0	468	37	49	
1	0	0	0	0	497	471	0	470	37	49	
2	0	0	0	0	488	468	0	471	37	49	
3	0	0	0	0	502	467	0	472	37	49	
4	0	0	0	0	516	465	0	474	37	49	
5	0	0	0	0	517	464	0	476	37	49	
6	0	0	0	0	516	463	0	473	37	49	
7	0	0	0	0	532	462	0	487	37	49	
8	0	0	0	0	533	463	0	504	37	49	
9	0	0	0	0	527	464	0	515	37	49	
10	0	0	0	0	511	466	0	536	37	49	
11	0	0	0	0	507	467	0	540	37	49	
12	0	0	0	0	511	472	0	549	37	49	
13	0	0	0	0	502	476	0	555	37	49	
14	0	0	0	0	489	479	0	551	37	49	
15	0	0	0	0	490	480	0	558	37	49	
0	0	0	0	0	485	482	0	551	37	49	
1	0	0	0	0	482	483	0	552	37	49	
2	0	0	0	0	488	483	0	555	37	49	
3	0	0	0	0	490	481	0	548	37	49	
4	0	0	0	0	496	480	0	542	37	49	
5	0	0	0	0	498	478	1	550	37	49	
6	0	0	0	0	499	474	0	547	37	49	
7	0	0	0	0	508	470	0	542	37	49	
8	0	0	0	0	524	468	0	538	37	49	
9	0	0	0	0	522	467	0	535	37	49	
10	0	0	0	0	522	467	0	534	37	49	
11	0	0	0	0	525	465	0	534	37	49	
12	0	0	0	0	511	463	0	526	37	49	
13	0	0	0	0	505	460	0	516	37	49	
14	0	0	0	0	508	458	0	507	37	49	
15	0	0	0	0	504	457	0	496	37	49	
0	0	0	0	0	504	455	0	488	37	49	
1	0	0	0	0	506	454	0	483	37	49	
2	0	0	0	0	503	453	0	480	37	49	
3	0	0	0	0	508	453	0	478	37	49	
4	0	0	0	0	504	453	0	477	37	49	
5	0	0	0	0	501	453	0	473	37	49	
6	0	0	0	0	510	453	0	471	37	49	
7	0	0	0	0	509	452	0	468	37	49	
8	0	0	0	0	507	452	0	470	37	49	
9	0	0	0	0	508	453	0	472	37	49	
10	0	0	0	0	507	453	0	473	37	49	
11	0	0	0	0	505	454	0	475	37	49	
12	0	0	0	0	504	454	0	477	37	49	
13	0	0	0	0	502	454	0	479	37	49	
14	0	0	0	0	503	455	0	473	37	49	
15	0	0	0	0	505	456	0	469	37	49	
0	0	0	0	0	502	457	0	465	37	49	
1	0	0	0	0	502	458	0	465	37	49	
2	0	0	0	0	511	459	0	468	37	49	
3	0	0	0	0	501	460	0	470	37	49	
4	0	0	0	0	502	460	0	472	37	49	
5	0	0	0	0	503	460	0	472	37	49	
6	0	0	0	0	512	460	0	478	37	49	
7	0	0	0	0	504	460	0	497	37	49	
8	0	0	0	0	505	459	0	505	37	49	
9	0	0	0	0	509	460	0	521	37	49	
10	0	0	0	0	505	460	0	534	37	49	
11	0	0	0	0	508	460	0	537	37	49	
12	0	0	0	0	503	460	0	548	37	49	
13	0	0	0	0	505	461	0	546	37	49	
14	0	0	0	0	511	462	0	549	37	49	
15	0	0	0	0	511	463	0	551	37	49	
0	0	0	0	0	503	464	0	546	37	49	
1	0	0	0	0	511	465	0	551	37	49	
2	0	0	0	0	514	467	0	545	37	49	
3	0	0	0	0	504	467	0	540	37	49	
4	0	0	0	0	503	468	0	547	37	49	
5	0	0	0	0	503	469	0	542	37	49	
6	0	0	0	0	504	470	1	534	37	49	
7	0	0	0	0	506	470	0	528	37	49	
8	0	0	0	0	511	468	0	526	37	49	
9	0	0	0	0	507	469	0	524	37	49	
10	0	0	0	0	504	469	0	524	37	49	
11	0	0	0	0	502	468	0	521	37	49	
12	0	0	0	0	503	469	0	512	37	49	
13	0	0	0	0	507	469	0	501	37	49	
14	0	0	0	0	511	469	0	491	37	49	
15	0	0	0	0	508	469	0	483	37	49	
0	0	0	0	0	498	469	0	478	37	49	
1	0	0	0	0	503	470	0	476	37	49	
2	0	0	0	0	501	471	0	474	37	49	
3	0	0	0	0	504	472	0	474	37	49	
4	0	0	0	0	504	473	0	474	37	49	
5	0	0	0	0	508	473	0	474	37	49	
6	0	0	0	0	513	473	0	470	37	49	
7	0	0	0	0	506	474	0	463	37	49	
8	0	0	0	0	507	475	0	462	37	49	
9	0	0	0	0	503	475	0	463	37	49	
10	0	0	0	0	504	475	0	465	37	49	
11	0	0	0	0	508	475	0	465	37	49	
12	0	0	0	0	508	476	0	467	37	49	
13	0	0	0	0	507	476	0	467	37	49	
14	0	0	0	0	505	476	0	467	37	49	
15	0	0	0	0	506	476	0	465	37	49	
0	0	0	0	0	507	475	0	465	37	49	
1	0	0	0	0	514	475	0	467	37	49	
2	0	0	0	0	502	476	0	471	37	49	
3	0	0	0	0	507	476	0	471	37	49	
4	0	0	0	0	513	477	0	472	37	49	
5	0	0	0	0	509	476	0	474	37	49	
6	0	0	0	0	507	476	0	488	37	49	
7	0	0	0	0	508	477	0	504	37	49	
8	0	0	0	0	508	479	0	512	37	49	
9	0	0	0	0	495	479	0	532	37	49	
10	0	0	0	0	505	480	0	536	37	49	
11	0	0	0	0	507	480	0	543	37	49	
12	0	0	0	0	505	480	0	551	37	49	
13	0	0	0	0	513	481	0	548	37	49	
14	0	0	0	0	504	482	0	556	37	49	
15	0	0	0	0	496	481	0	547	37	49	
0	0	0	0	0	503	480	0	547	37	49	
1	0	0	0	0	507	480	0	549	37	49	
2	0	0	0	0	511	480	0	544	37	49	
3	0	0	0	0	514	480	0	537	37	49	
4	0	0	0	0	510	480	0	532	37	49	
5	0	0	0	0	502	480	0	529	37	49	
6	0	0	0	0	500	478	0	531	37	49	
7	0	0	0	0	500	476	0	539	37	49	
8	0	0	0	0	516	476	1	537	37	49	
9	0	0	0	0	504	476	0	534	37	49	
10	0	0	0	0	503	476	0	531	38	49	
11	0	0	0	0	503	476	0	528	38	49	
12	0	0	0	0	506	476	0	527	38	49	
13	0	0	0	0	507	476	0	523	38	49	
14	0	0	0	0	505	476	0	514	38	49	
15	0	0	0	0	509	476	0	534	38	49	
0	0	0	0	0	508	476	0	525	38	49	
1	0	0	0	0	512	476	0	519	38	49	
2	0	0	0	0	507	476	0	510	38	49	
3	0	0	0	0	504	477	0	499	38	49	
4	0	0	0	0	509	476	0	489	38	49	
5	0	0	0	0	512	476	0	480	38	49	
6	0	0	0	0	510	476	0	478	38	49	
7	0	0	0	0	569	481	0	464	38	49	
8	0	0	0	0	495	483	0	462	38	49	
9	0	0	0	0	474	484	0	462	38	49	
10	0	0	0	0	466	485	0	463	38	49	
11	0	0	0	0	480	484	0	465	38	49	
12	0	0	0	0	488	484	0	468	38	49	
13	0	0	0	0	500	484	0	466	38	49	
14	0	0	0	0	504	482	0	462	38	49	
15	0	0	0	0	507	479	0	460	38	49	
0	0	0	0	0	517	477	0	459	38	49	
1	0	0	0	0	520	475	0	462	38	49	
2	0	0	0	0	519	474	0	464	38	49	
3	0	0	0	0	535	474	0	466	38	49	
4	0	0	0	0	529	475	0	469	38	49	
5	0	0	0	0	521	476	0	470	38	49	
6	0	0	0	0	514	478	0	468	38	49	
7	0	0	0	0	508	479	0	466	38	49	
8	0	0	0	0	516	483	0	483	38	49	
9	0	0	0	0	499	486	0	502	38	49	
10	0	0	0	0	485	488	0	513	38	49	
11	0	0	0	0	488	492	0	532	38	49	
12	0	0	0	0	487	494	1	536	38	49	
13	0	0	0	0	481	495	0	543	37	49	
14	0	0	0	0	490	495	0	543	37	49	
15	0	0	0	0	488	495	0	537	37	49	
0	0	0	0	0	495	493	0	545	37	49	
1	0	0	0	0	504	492	0	542	37	49	
2	0	0	0	0	509	489	0	539	37	49	
3	0	0	0	0	508	486	0	533	37	49	
4	0	0	0	0	522	483	0	529	37	49	
5	0	0	0	0	520	481	0	526	37	49	
6	0	0	0	0	527	480	0	534	37	49	
7	0	0	0	0	527	480	0	531	37	49	
8	0	0	0	0	523	480	0	518	37	49	
9	0	0	0	0	519	481	0	503	37	49	
10	0	0	0	0	512	483	0	495	37	49	
11	0	0	0	0	511	487	0	484	37	49	
12	0	0	0	0	513	491	0	477	37	49	
13	0	0	0	0	509	493	0	472	37	49	
14	0	0	0	0	487	496	0	467	37	49	
15	0	0	0	0	487	499	0	462	37	49	
0	0	0	0	0	487	502	0	460	37	49	
1	0	0	0	0	484	504	0	461	37	49	
2	0	0	0	0	486	504	0	462	37	49	
3	0	0	0	0	485	504	0	463	37	49	
4	0	0	0	0	499	503	0	465	37	49	
5	0	0	0	0	505	502	0	463	37	49	
6	0	0	0	0	508	500	0	459	37	49	
7	0	0	0	0	505	498	0	457	37	49	
8	0	0	0	0	520	497	0	457	37	49	
9	0	0	0	0	520	496	0	460	37	49	
10	0	0	0	0	530	495	0	463	37	49	
11	0	0	0	0	533	496	0	462	37	49	
12	0	0	0	0	521	497	0	464	37	49	
13	0	0	0	0	520	500	0	464	37	49	
14	0	0	0	0	519	503	0	461	37	48	
15	0	0	0	0	512	507	0	457	37	48	
0	0	0	0	0	509	510	0	456	37	48	
1	0	0	0	0	502	515	0	458	37	48	
2	0	0	0	0	483	519	0	460	37	48	
3	0	0	0	0	485	523	0	461	37	48	
4	0	0	0	0	485	526	0	463	37	48	
5	0	0	0	0	490	528	0	460	37	48	
6	0	0	0	0	487	531	0	458	37	48	
7	0	0	0	0	495	531	0	455	37	48	
8	0	0	0	0	494	531	0	455	37	48	
9	0	0	0	0	492	529	0	458	37	48	
10	0	0	0	0	505	528	0	460	37	48	
11	0	0	0	0	515	527	0	464	37	48	
12	0	0	0	0	525	526	0	473	37	48	
13	0	0	0	0	528	526	0	500	37	48	
14	0	0	0	0	524	525	0	508	37	48	
15	0	0	0	0	525	525	0	521	37	48	
0	0	0	0	0	520	527	0	532	37	48	
1	0	0	0	0	527	529	0	534	37	48	
2	0	0	0	0	512	532	0	547	37	48	
3	0	0	0	0	503	534	0	543	37	48	
4	0	0	0	0	507	537	0	546	37	48	
5	0	0	0	0	498	541	0	565	37	48	
6	0	0	0	0	492	544	0	542	37	48	
7	0	0	0	0	487	548	0	547	37	48	
8	0	0	0	0	502	550	0	541	37	48	
9	0	0	0	0	497	552	0	524	37	48	
10	0	0	0	0	502	555	0	508	37	48	
11	0	0	0	0	507	558	0	503	37	48	
12	0	0	0	0	506	560	0	516	37	48	
13	0	0	0	0	508	562	0	518	37	48	
14	0	0	0	0	502	564	0	526	37	48	
15	0	0	0	0	503	565	0	532	37	48	
0	0	0	0	0	511	566	0	531	37	48	
1	0	0	0	0	507	567	0	543	37	48	
2	0	0	0	0	504	568	0	541	37	48	
3	0	0	0	0	507	569	0	536	37	48	
4	0	0	0	0	502	570	0	534	37	48	
5	0	0	0	0	505	571	0	541	37	48	
6	0	0	0	0	502	571	0	532	37	48	
7	0	0	0	0	511	571	0	527	37	48	
8	0	0	0	0	504	570	0	524	37	48	
9	0	0	0	0	508	570	0	523	37	48	
10	0	0	0	0	511	567	0	522	37	48	
11	0	0	0	0	504	566	0	519	37	48	
12	0	0	0	0	510	566	0	510	37	48	
13	0	0	0	0	505	566	0	501	37	48	
14	0	0	0	0	513	567	0	492	37	48	
15	0	0	0	0	509	566	0	483	37	48	
0	0	0	0	0	507	566	0	477	37	48	
1	0	0	0	0	500	565	0	474	37	48	
2	0	0	0	0	507	564	0	472	37	48	
3	0	0	0	0	510	564	0	472	37	48	
4	0	0	0	0	504	564	0	474	37	48	
5	0	0	0	0	507	563	0	476	37	48	
6	0	0	0	0	499	563	0	475	37	48	
7	0	0	0	0	506	562	0	471	37	48	
8	0	0	0	0	504	562	0	468	37	48	
9	0	0	0	0	504	562	0	469	37	48	
10	0	0	0	0	507	561	0	474	37	48	
11	0	0	0	0	504	560	0	478	37	48	
12	0	0	0	0	507	558	0	480	37	48	
13	0	0	0	0	508	558	0	481	37	48	
14	0	0	0	0	509	556	0	481	37	48	
15	0	0	0	0	502	555	0	479	37	48	
0	0	0	0	0	508	552	0	479	37	48	
1	0	0	0	0	507	551	0	478	37	48	
2	0	0	0	0	514	552	0	478	37	48	
3	0	0	0	0	506	551	0	479	37	48	
4	0	0	0	0	504	550	0	480	37	48	
5	0	0	0	0	503	550	0	484	37	48	
6	0	0	0	0	508	549	0	499	37	48	
7	0	0	0	0	499	549	0	515	37	48	
8	0	0	0	0	508	549	0	523	37	48	
9	0	0	0	0	506	549	0	541	37	48	
10	0	0	0	0	505	549	0	544	37	48	
11	0	0	0	0	502	548	0	553	37	48	
12	0	0	0	0	499	547	0	561	37	48	
13	0	0	0	0	509	546	0	558	37	48	
14	0	0	0	0	495	545	0	566	37	48	
15	0	0	0	0	505	544	0	554	37	48	
0	0	0	0	0	505	543	0	553	37	48	
1	0	0	0	0	505	543	0	553	37	48	
2	0	0	0	0	510	542	0	548	37	48	
3	0	0	0	0	513	541	0	543	37	48	
4	0	0	0	0	511	540	0	540	37	48	
5	0	0	0	0	503	539	0	539	37	48	
6	0	0	0	0	507	539	0	542	37	48	
7	0	0	0	0	502	537	0	551	37	48	
8	0	0	0	0	507	537	0	549	37	48	
9	0	0	0	0	509	536	0	547	37	48	
10	0	0	0	0	506	536	0	546	37	48	
11	0	0	0	0	504	536	0	544	37	48	
12	0	0	0	0	511	536	0	543	37	48	
13	0	0	0	0	502	536	0	541	37	48	
14	0	0	0	0	510	536	0	531	37	48	
15	0	0	0	0	503	536	0	537	37	48	
0	0	0	0	0	506	536	0	544	37	48	
1	0	0	0	0	500	536	0	539	37	47	
2	0	0	0	0	504	535	0	528	37	47	
3	0	0	0	0	508	534	0	518	37	47	
4	0	0	0	0	510	534	0	508	37	47	
5	0	0	0	0	506	533	0	499	37	47	
6	0	0	0	0	499	531	0	490	37	47	
7	0	0	0	0	516	529	0	481	37	47	
8	0	0	0	0	507	529	0	479	37	47	
9	0	0	0	0	507	528	0	478	37	47	
10	0	0	0	0	511	527	0	479	37	47	
11	0	0	0	0	510	527	0	481	37	47	
12	0	0	0	0	506	527	0	483	37	47	
13	0	0	0	0	500	527	0	481	37	47	
14	0	0	0	0	497	526	0	478	37	47	
15	0	0	0	0	505	526	0	475	37	47	
0	0	0	0	0	507	526	0	476	37	47	
1	0	0	0	0	500	526	0	478	37	47	
2	0	0	0	0	502	526	0	480	37	47	
3	0	0	0	0	510	526	0	483	37	47	
4	0	0	0	0	502	526	0	486	37	47	
5	0	0	0	0	508	526	0	487	37	47	
6	0	0	0	0	506	526	0	486	37	47	
7	0	0	0	0	506	526	0	483	37	47	
8	0	0	0	0	510	526	0	500	37	47	
9	0	0	0	0	509	526	0	520	37	47	
10	0	0	0	0	508	526	0	533	37	47	
11	0	0	0	0	504	525	0	554	37	47	
12	0	0	0	0	504	525	0	558	37	47	
13	0	0	0	0	500	524	0	567	37	47	
14	0	0	0	0	507	523	0	570	37	47	
15	0	0	0	0	502	522	0	564	37	47	
0	0	0	0	0	504	521	0	571	37	47	
1	0	0	0	0	504	521	0	567	37	47	
2	0	0	0	0	502	521	0	561	37	47	
3	0	0	0	0	504	521	0	556	37	47	
4	0	0	0	0	508	520	0	552	37	47	
5	0	0	0	0	507	520	0	549	37	47	
6	0	0	0	0	509	520	0	557	37	47	
7	0	0	0	0	505	520	0	554	37	47	
8	0	0	0	0	502	521	0	548	37	47	
9	0	0	0	0	510	521	0	547	37	47	
10	0	0	0	0	497	520	0	545	37	47	
11	0	0	0	0	503	519	0	544	38	47	
12	0	0	0	0	507	519	0	544	38	47	
13	0	0	0	0	503	520	0	539	38	47	
14	0	0	0	0	508	519	0	529	38	47	
15	0	0	0	0	509	519	0	520	38	47	
0	0	0	0	0	507	519	0	515	38	47	
1	0	0	0	0	508	518	0	512	38	47	
2	0	0	0	0	505	518	0	501	38	47	
3	0	0	0	0	510	517	0	498	38	47	
4	0	0	0	0	508	517	0	500	38	47	
5	0	0	0	0	497	517	0	495	38	47	
6	0	0	0	0	507	516	0	489	38	47	
7	0	0	0	0	512	517	0	484	38	47	
8	0	0	0	0	503	516	0	482	38	47	
9	0	0	0	0	497	517	0	484	38	47	
10	0	0	0	0	509	517	0	486	38	47	
11	0	0	0	0	512	517	0	489	38	47	
12	0	0	0	0	504	517	0	489	38	47	
13	0	0	0	0	510	517	0	490	38	47	
14	0	0	0	0	504	517	0	489	38	47	
15	0	0	0	0	503	518	0	486	38	47	
0	0	0	0	0	507	518	0	485	38	47	
1	0	0	0	0	508	517	0	487	38	47	
2	0	0	0	0	499	517	0	492	37	47	
3	0	0	0	0	506	517	0	492	37	47	
4	0	0	0	0	507	516	0	495	37	47	
5	0	0	0	0	513	516	0	493	37	47	
6	0	0	0	0	504	516	0	493	37	47	
7	0	0	0	0	503	516	0	496	37	47	
8	0	0	0	0	505	516	0	505	37	47	
9	0	0	0	0	511	517	0	523	37	47	
10	0	0	0	0	502	518	0	539	37	47	
11	0	0	0	0	505	518	0	552	37	47	
12	0	0	0	0	505	519	0	558	37	47	
13	0	0	0	0	499	519	0	551	37	47	
14	0	0	0	0	504	520	0	559	37	47	
15	0	0	0	0	507	520	0	560	37	47	
0	0	0	0	0	513	521	0	559	37	47	
1	0	0	0	0	498	521	0	566	37	47	
2	0	0	0	0	505	521	0	559	37	47	
3	0	0	0	0	505	521	0	564	37	47	
4	0	0	0	0	507	521	0	561	37	47	
5	0	0	0	0	508	520	0	556	37	47	
6	0	0	0	0	508	520	0	560	37	47	
7	0	0	0	0	505	519	0	550	37	47	
8	0	0	0	0	508	518	0	554	37	47	
9	0	0	0	0	504	519	0	555	37	47	
10	0	0	0	0	499	519	0	554	37	47	
11	0	0	0	0	505	518	0	561	37	47	
12	0	0	0	0	507	517	0	555	37	47	
13	0	0	0	0	500	517	0	560	37	47	
14	0	0	0	0	503	517	0	550	37	47	
15	0	0	0	0	505	518	0	540	37	47	
0	0	0	0	0	505	519	0	535	37	47	
1	0	0	0	0	511	519	0	529	37	47	
2	0	0	0	0	503	520	0	527	37	47	
3	0	0	0	0	508	521	0	524	37	47	
4	0	0	0	0	511	521	0	515	37	47	
5	0	0	0	0	508	522	0	504	37	47	
6	0	0	0	0	500	521	0	494	37	47	
7	0	0	0	0	507	521	0	486	37	47	
8	0	0	0	0	500	521	0	477	37	47	
9	0	0	0	0	503	521	0	473	37	47	
10	0	0	0	0	507	521	0	470	37	47	
11	0	0	0	0	503	521	0	469	37	47	
12	0	0	0	0	507	519	0	469	37	47	
13	0	0	0	0	516	519	0	467	37	47	
14	0	0	0	0	509	519	0	465	37	47	
15	0	0	0	0	503	518	0	461	37	47	
0	0	0	0	0	501	517	0	462	37	47	
1	0	0	0	0	503	518	0	463	37	47	
2	0	0	0	0	509	519	0	465	37	47	
3	0	0	0	0	502	520	0	467	37	47	
4	0	0	0	0	505	521	0	468	37	47	
5	0	0	0	0	499	521	0	469	37	47	
6	0	0	0	0	503	522	0	467	37	47	
7	0	0	0	0	504	523	0	460	37	47	
8	0	0	0	0	512	523	0	459	37	47	
9	0	0	0	0	501	523	0	460	37	47	
10	0	0	0	0	510	523	0	462	37	47	
11	0	0	0	0	504	522	0	463	37	46	
12	0	0	0	0	510	521	0	465	37	46	
13	0	0	0	0	513	521	0	466	37	46	
14	0	0	0	0	508	521	0	473	37	46	
15	0	0	0	0	504	520	0	494	37	46	
0	0	0	0	0	505	519	0	504	37	46	
1	0	0	0	0	503	519	0	500	37	46	
2	0	0	0	0	505	519	0	494	37	46	
3	0	0	0	0	505	518	0	487	37	46	
4	0	0	0	0	504	517	0	482	37	46	
5	0	0	0	0	500	517	0	478	37	46	
6	0	0	0	0	512	518	0	472	37	46	
7	0	0	0	0	511	518	0	465	37	46	
8	0	0	0	0	502	518	0	462	37	46	
9	0	0	0	0	502	518	0	463	37	46	
10	0	0	0	0	502	519	0	465	37	46	
11	0	0	0	0	503	519	0	468	37	46	
12	0	0	0	0	511	519	0	471	37	46	
13	0	0	0	0	503	519	0	472	37	46	
14	0	0	0	0	506	519	0	470	37	46	
15	0	0	0	0	507	519	0	466	37	46	
0	0	0	0	0	511	518	0	464	37	46	
1	0	0	0	0	503	516	0	465	37	46	
2	0	0	0	0	508	515	0	469	37	46	
3	0	0	0	0	509	515	0	472	37	46	
4	0	0	0	0	504	514	0	475	37	46	
5	0	0	0	0	505	514	0	474	37	46	
6	0	0	0	0	502	515	0	473	37	46	
7	0	0	0	0	505	515	0	471	37	46	
8	0	0	0	0	510	515	0	471	37	46	
9	0	0	0	0	505	515	0	472	37	46	
10	0	0	0	0	507	515	0	474	37	46	
11	0	0	0	0	503	515	0	476	37	46	
12	0	0	0	0	497	516	0	479	37	46	
13	0	0	0	0	510	517	0	480	37	46	
14	0	0	0	0	507	517	0	479	37	46	
15	0	0	0	0	506	517	0	475	37	46	
0	0	0	0	0	504	518	0	473	37	46	
1	0	0	0	0	508	518	0	491	37	46	
2	0	0	0	0	501	518	0	492	37	46	
3	0	0	0	0	508	518	0	510	37	46	
4	0	0	0	0	503	518	0	526	37	46	
5	0	0	0	0	508	518	0	546	37	46	
6	0	0	0	0	512	518	0	555	37	46	
7	0	0	0	0	508	518	0	553	37	46	
8	0	0	0	0	508	517	0	564	37	46	
9	0	0	0	0	502	516	0	568	37	46	
10	0	0	0	0	514	517	0	568	37	46	
11	0	0	0	0	510	518	0	574	37	46	
12	0	0	0	0	503	518	0	568	37	46	
13	0	0	0	0	504	519	0	572	37	46	
14	0	0	0	0	504	519	0	565	37	46	
15	0	0	0	0	511	519	0	561	37	46	
0	0	0	0	0	495	520	0	568	37	46	
1	0	0	0	0	504	521	0	562	37	46	
2	0	0	0	0	498	521	0	568	37	46	
3	0	0	0	0	508	521	0	566	37	46	
4	0	0	0	0	504	521	0	551	37	46	
5	0	0	0	0	508	522	0	532	37	46	
6	0	0	0	0	510	521	0	512	37	46	
7	0	0	0	0	512	521	0	494	37	46	
8	0	0	0	0	513	520	0	484	37	46	
9	0	0	0	0	504	520	0	480	37	46	
10	0	0	0	0	498	520	0	479	37	46	
11	0	0	0	0	505	519	0	481	37	46	
12	0	0	0	0	508	518	0	482	37	46	
13	0	0	0	0	503	516	0	482	37	46	
14	0	0	0	0	508	514	0	479	37	46	
15	0	0	0	0	505	513	0	478	37	46	
0	0	0	0	0	509	512	0	478	37	46	
1	0	0	0	0	497	510	0	481	37	46	
2	0	0	0	0	508	510	0	483	37	46	
3	0	0	0	0	504	509	0	483	37	46	
4	0	0	0	0	508	510	0	487	37	46	
5	0	0	0	0	503	510	0	489	37	46	
6	0	0	0	0	511	511	0	486	37	46	
7	0	0	0	0	506	512	0	481	37	46	
8	0	0	0	0	507	512	0	479	37	46	
9	0	0	0	0	508	512	0	481	37	46	
10	0	0	0	0	504	512	0	484	37	46	
11	0	0	0	0	503	511	0	487	37	46	
12	0	0	0	0	505	510	0	488	37	46	
13	0	0	0	0	504	510	0	489	37	46	
14	0	0	0	0	508	509	0	487	37	46	
15	0	0	0	0	502	509	0	485	37	46	
0	0	0	0	0	510	508	0	484	37	46	
1	0	0	0	0	512	507	0	484	37	46	
2	0	0	0	0	509	507	0	486	37	46	
3	0	0	0	0	503	505	0	488	37	46	
4	0	0	0	0	507	505	0	490	37	46	
5	0	0	0	0	508	505	0	489	37	46	
6	0	0	0	0	511	505	0	508	37	46	
7	0	0	0	0	511	505	0	525	37	46	
8	0	0	0	0	505	505	0	534	37	46	
9	0	0	0	0	498	507	0	552	37	46	
10	0	0	0	0	504	509	0	558	37	46	
11	0	0	0	0	505	510	0	565	37	46	
12	0	0	0	0	498	511	0	571	37	46	
13	0	0	0	0	512	511	0	567	37	46	
14	0	0	0	0	507	511	0	573	37	46	
15	0	0	0	0	505	511	0	565	37	46	
0	0	0	0	0	505	511	0	566	37	46	
1	0	0	0	0	506	511	0	570	37	46	
2	0	0	0	0	507	510	0	566	37	46	
3	0	0	0	0	501	508	0	574	37	46	
4	0	0	0	0	501	507	0	570	37	46	
5	0	0	0	0	501	506	0	573	37	46	
6	0	0	0	0	507	506	0	575	37	46	
7	0	0	0	0	508	505	0	571	37	46	
8	0	0	0	0	509	504	0	572	37	46	
9	0	0	0	0	505	504	0	567	37	46	
10	0	0	0	0	513	505	0	569	37	46	
11	0	0	0	0	501	507	0	572	37	46	
12	0	0	0	0	503	508	0	568	37	46	
13	0	0	0	0	506	508	0	575	37	46	
14	0	0	0	0	504	510	0	568	37	46	
15	0	0	0	0	505	510	0	567	38	46	
0	0	0	0	0	513	510	0	568	38	46	
1	0	0	0	0	500	509	0	561	37	46	
2	0	0	0	0	501	510	0	556	37	46	
3	0	0	0	0	504	510	0	551	37	46	
4	0	0	0	0	508	509	0	550	38	46	
5	0	0	0	0	505	509	0	549	38	46	
6	0	0	0	0	504	508	0	550	37	46	
7	0	0	0	0	507	508	0	561	38	46	
8	0	0	0	0	503	508	0	558	38	46	
9	0	0	0	0	511	507	0	556	38	46	
10	0	0	0	0	507	506	0	553	38	46	
11	0	0	0	0	508	505	0	551	38	46	
12	0	0	0	0	511	505	0	548	38	46	
13	0	0	0	0	503	505	0	546	38	46	
14	0	0	0	0	509	505	0	536	38	46	
15	0	0	0	0	510	507	0	537	38	46	
0	0	0	0	0	499	507	0	550	38	46	
1	0	0	0	0	505	508	0	548	38	46	
2	0	0	0	0	506	508	0	537	38	46	
3	0	0	0	0	504	509	0	525	38	46	
4	0	0	0	0	499	509	0	515	38	46	
5	0	0	0	0	508	509	0	508	38	46	
6	0	0	0	0	501	509	0	499	38	46	
7	0	0	0	0	504	508	0	489	38	46	
8	0	0	0	0	509	508	0	501	38	46	
9	0	0	0	0	502	509	0	502	37	46	
10	0	0	0	0	509	508	0	502	38	46	
11	0	0	0	0	503	507	0	490	37	46	
12	0	0	0	0	511	507	0	492	37	46	
13	0	0	0	0	504	507	0	493	37	46	
14	0	0	0	0	510	506	0	493	37	46	
15	0	0	0	0	509	505	0	490	37	46	
0	0	0	0	0	504	506	0	491	37	46	
1	0	0	0	0	502	507	0	492	37	46	
2	0	0	0	0	505	507	0	495	37	46	
3	0	0	0	0	504	508	0	496	37	46	
4	0	0	0	0	504	508	0	498	37	46	
5	0	0	0	0	509	509	0	499	37	46	
6	0	0	0	0	508	510	0	496	37	46	
7	0	0	0	0	505	510	0	491	37	46	
8	0	0	0	0	506	511	0	503	37	46	
9	0	0	0	0	500	512	0	531	37	46	
10	0	0	0	0	509	512	0	537	37	46	
11	0	0	0	0	508	513	0	557	37	46	
12	0	0	0	0	508	514	0	566	37	46	
13	0	0	0	0	507	515	0	571	37	46	
14	0	0	0	0	508	516	0	578	37	46	
15	0	0	0	0	510	518	0	572	37	46	
0	0	0	0	0	507	521	0	577	37	46	
1	0	0	0	0	511	522	0	575	37	46	
2	0	0	0	0	504	523	0	574	37	46	
3	0	0	0	0	504	524	0	581	37	46	
4	0	0	0	0	505	525	0	573	37	46	
5	0	0	0	0	507	524	0	556	37	46	
6	0	0	0	0	507	523	0	552	37	46	
7	0	0	0	0	508	522	0	553	37	46	
8	0	0	0	0	507	519	0	550	37	46	
9	0	0	0	0	504	515	0	560	37	46	
10	0	0	0	0	502	510	0	559	37	46	
11	0	0	0	0	507	505	0	556	37	46	
12	0	0	0	0	515	499	0	556	37	46	
13	0	0	0	0	504	490	0	563	37	46	
14	0	0	0	0	496	482	0	554	37	46	
15	0	0	0	0	505	474	0	556	37	46	
0	0	0	0	0	508	467	0	551	37	46	
1	0	0	0	0	504	462	0	545	37	46	
2	0	0	0	0	516	457	0	540	37	46	
3	0	0	0	0	503	454	0	537	37	46	
4	0	0	0	0	502	452	0	536	37	46	
5	0	0	0	0	501	450	0	535	37	46	
6	0	0	0	0	504	448	0	525	37	46	
7	0	0	0	0	507	446	0	520	37	46	
8	0	0	0	0	512	446	0	535	37	46	
9	0	0	0	0	507	448	0	537	37	46	
10	0	0	0	0	499	450	0	527	37	46	
11	0	0	0	0	504	452	0	515	37	46	
12	0	0	0	0	511	453	0	504	37	46	
13	0	0	0	0	504	454	0	492	37	46	
14	0	0	0	0	507	456	0	481	37	46	
15	0	0	0	0	502	459	0	475	37	46	
0	0	0	0	0	507	460	0	471	37	46	
1	0	0	0	0	508	459	0	474	37	46	
2	0	0	0	0	499	457	0	477	37	46	
3	0	0	0	0	504	459	0	480	37	46	
4	0	0	0	0	506	463	0	482	37	46	
5	0	0	0	0	505	473	0	484	37	46	
6	0	0	0	0	512	484	0	485	37	46	
7	0	0	0	0	507	496	0	483	37	46	
8	0	0	0	0	503	507	0	481	37	46	
9	0	0	0	0	509	519	0	479	37	46	
10	0	0	0	0	508	531	0	480	37	46	
11	0	0	0	0	501	543	0	482	37	46	
12	0	0	0	0	507	556	0	485	37	46	
13	0	0	0	0	509	568	0	485	37	46	
14	0	0	0	0	504	579	0	481	37	46	
15	0	0	0	0	504	591	0	478	37	46	
0	0	0	0	0	510	600	0	484	37	46	
1	0	0	0	0	502	608	0	508	37	46	
2	0	0	0	0	500	613	0	519	37	46	
3	0	0	0	0	507	615	0	535	37	46	
4	0	0	0	0	504	616	0	548	37	46	
5	0	0	0	0	505	614	0	550	37	46	
6	0	0	0	0	510	610	0	569	37	46	
7	0	0	0	0	509	607	0	563	37	46	
8	0	0	0	0	506	604	0	569	37	46	
9	0	0	0	0	506	599	0	555	37	46	
10	0	0	0	0	508	595	0	560	37	46	
11	0	0	0	0	506	593	0	545	37	46	
12	0	0	0	0	504	590	0	543	37	46	
13	0	0	0	0	504	587	0	541	37	46	
14	0	0	0	0	506	583	0	543	37	46	
15	0	0	0	0	504	580	0	552	37	46	
0	0	0	0	0	506	577	0	548	37	46	
1	0	0	0	0	501	574	0	544	37	46	
2	0	0	0	0	499	572	0	542	37	46	
3	0	0	0	0	501	570	0	537	37	46	
4	0	0	0	0	512	567	0	535	37	46	
5	0	0	0	0	509	563	0	532	37	46	
6	0	0	0	0	514	559	0	524	37	46	
7	0	0	0	0	503	554	0	528	37	46	
8	0	0	0	0	505	549	0	535	37	46	
9	0	0	0	0	501	544	0	529	37	46	
10	0	0	0	0	505	540	0	518	37	46	
11	0	0	0	0	502	537	0	507	37	46	
12	0	0	0	0	511	534	0	496	37	46	
13	0	0	0	0	507	531	0	488	37	46	
14	0	0	0	0	508	527	0	480	37	46	
15	0	0	0	0	505	525	0	474	37	46	
0	0	0	0	0	508	521	0	472	37	46	
1	0	0	0	0	498	518	0	471	37	46	
2	0	0	0	0	508	515	0	473	37	46	
3	0	0	0	0	505	512	0	474	37	46	
4	0	0	0	0	508	509	0	476	37	46	
5	0	0	0	0	505	506	0	476	37	46	
6	0	0	0	0	501	503	0	474	37	46	
7	0	0	0	0	505	501	0	472	37	46	
8	0	0	0	0	512	500	0	471	37	46	
9	0	0	0	0	504	498	0	471	37	46	
10	0	0	0	0	507	497	0	472	37	46	
11	0	0	0	0	504	496	0	472	37	46	
12	0	0	0	0	507	496	0	472	37	46	
13	0	0	0	0	509	495	0	472	37	46	
14	0	0	0	0	508	494	0	469	37	46	
15	0	0	0	0	509	493	0	465	37	46	
0	0	0	0	0	501	492	0	482	37	46	
1	0	0	0	0	499	492	0	502	37	46	
2	0	0	0	0	505	491	0	514	37	46	
3	0	0	0	0	500	490	0	534	37	46	
4	0	0	0	0	515	489	0	538	37	46	
5	0	0	0	0	500	487	0	545	37	46	
6	0	0	0	0	498	486	0	548	37	46	
7	0	0	0	0	502	485	0	541	37	46	
8	0	0	0	0	507	486	0	548	37	46	
9	0	0	0	0	506	486	0	544	37	46	
10	0	0	0	0	511	486	0	539	37	46	
11	0	0	0	0	510	486	0	534	37	46	
12	0	0	0	0	512	487	0	529	38	46	
13	0	0	0	0	503	487	0	526	38	46	
14	0	0	0	0	508	488	0	533	38	46	
15	0	0	0	0	508	489	0	528	38	46	
0	0	0	0	0	509	490	0	522	38	46	
1	0	0	0	0	488	489	0	517	38	46	
2	0	0	0	0	514	488	0	515	37	46	
3	0	0	0	0	527	489	0	515	38	46	
4	0	0	0	0	517	491	0	516	38	46	
5	0	0	0	0	509	492	0	509	38	46	
6	0	0	0	0	501	494	0	502	38	46	
7	0	0	0	0	502	495	0	494	38	46	
8	0	0	0	0	490	495	0	487	38	46	
9	0	0	0	0	489	495	0	481	38	46	
10	0	0	0	0	492	494	0	478	37	46	
11	0	0	0	0	489	493	0	476	37	46	
12	0	0	0	0	499	491	0	476	37	46	
13	0	0	0	0	502	487	0	473	37	46	
14	0	0	0	0	515	484	0	471	37	46	
15	0	0	0	0	511	480	0	467	37	46	
0	0	0	0	0	517	476	0	464	37	46	
1	0	0	0	0	524	473	0	466	37	46	
2	0	0	0	0	523	472	0	483	37	46	
3	0	0	0	0	522	471	0	468	37	46	
4	0	0	0	0	519	471	0	470	37	46	
5	0	0	0	0	521	471	0	470	37	46	
6	0	0	0	0	516	472	0	467	37	46	
7	0	0	0	0	505	475	0	463	37	46	
8	0	0	0	0	511	478	0	460	37	46	
9	0	0	0	0	509	482	0	462	37	46	
10	0	0	0	0	490	485	0	465	37	46	
11	0	0	0	0	488	487	0	468	37	46	
12	0	0	0	0	492	490	0	472	37	46	
13	0	0	0	0	486	491	0	473	37	46	
14	0	0	0	0	485	492	0	473	37	46	
15	0	0	0	0	495	491	0	478	37	46	
0	0	0	0	0	491	489	0	503	37	46	
1	0	0	0	0	499	486	0	516	37	46	
2	0	0	0	0	497	483	0	532	37	46	
3	0	0	0	0	507	479	0	545	37	46	
4	0	0	0	0	519	476	0	550	37	46	
5	0	0	0	0	526	473	0	558	37	46	
6	0	0	0	0	520	472	0	553	37	46	
7	0	0	0	0	527	472	0	566	37	46	
8	0	0	0	0	524	472	0	556	37	46	
9	0	0	0	0	519	473	0	553	37	46	
10	0	0	0	0	514	475	0	561	37	46	
11	0	0	0	0	510	478	0	558	37	46	
12	0	0	0	0	512	481	0	555	37	46	
13	0	0	0	0	500	484	0	553	37	46	
14	0	0	0	0	490	487	0	559	37	46	
15	0	0	0	0	492	490	0	551	37	46	
0	0	0	0	0	495	492	0	544	37	46	
1	0	0	0	0	480	493	0	541	37	46	
2	0	0	0	0	487	494	0	541	37	46	
3	0	0	0	0	487	494	0	539	37	46	
4	0	0	0	0	498	492	0	536	37	46	
5	0	0	0	0	503	490	0	528	37	46	
6	0	0	0	0	507	486	0	519	37	46	
7	0	0	0	0	505	482	0	511	37	46	
8	0	0	0	0	528	480	0	503	38	46	
9	0	0	0	0	519	477	0	500	38	46	
10	0	0	0	0	515	475	0	496	38	46	
11	0	0	0	0	527	473	0	494	38	46	
12	0	0	0	0	519	474	0	492	38	46	
13	0	0	0	0	529	475	0	492	38	46	
14	0	0	0	0	510	477	0	489	38	46	
15	0	0	0	0	510	480	0	485	38	46	
0	0	0	0	0	517	483	0	483	38	46	
1	0	0	0	0	504	487	0	485	38	46	
2	0	0	0	0	493	489	0	488	38	46	
3	0	0	0	0	488	492	0	492	38	46	
4	0	0	0	0	487	495	0	495	38	46	
5	0	0	0	0	482	495	0	496	38	46	
6	0	0	0	0	492	495	0	496	38	46	
7	0	0	0	0	494	494	0	494	38	46	
8	0	0	0	0	498	493	0	492	38	46	
9	0	0	0	0	501	490	0	492	38	46	
10	0	0	0	0	502	487	0	492	38	46	
11	0	0	0	0	504	484	0	492	38	46	
12	0	0	0	0	518	481	0	492	38	46	
13	0	0	0	0	523	479	0	493	38	46	
14	0	0	0	0	522	477	0	489	38	46	
15	0	0	0	0	524	476	0	485	38	46	
0	0	0	0	0	523	476	0	480	38	46	
1	0	0	0	0	524	476	0	481	38	46	
2	0	0	0	0	514	478	0	483	37	46	
3	0	0	0	0	508	481	0	484	37	46	
4	0	0	0	0	512	484	0	487	37	46	
5	0	0	0	0	497	488	0	489	37	46	
6	0	0	0	0	489	491	0	490	37	46	
7	0	0	0	0	491	493	0	489	37	46	
8	0	0	0	0	486	495	0	489	37	46	
9	0	0	0	0	476	496	0	490	37	46	
10	0	0	0	0	491	496	0	492	37	46	
11	0	0	0	0	491	495	0	494	37	46	
12	0	0	0	0	504	493	0	497	37	46	
13	0	0	0	0	500	491	0	497	37	46	
14	0	0	0	0	507	487	0	501	37	46	
15	0	0	0	0	510	483	0	492	37	46	
0	0	0	0	0	523	481	0	494	37	46	
1	0	0	0	0	525	479	0	489	37	46	
2	0	0	0	0	526	476	0	491	37	46	
3	0	0	0	0	522	476	0	492	37	46	
4	0	0	0	0	522	476	0	493	37	46	
5	0	0	0	0	521	476	0	492	37	46	
6	0	0	0	0	512	479	0	489	37	46	
7	0	0	0	0	508	480	0	484	37	46	
8	0	0	0	0	505	483	0	482	37	46	
9	0	0	0	0	503	486	0	484	37	46	
10	0	0	0	0	487	489	0	488	37	46	
11	0	0	0	0	497	491	0	493	37	46	
12	0	0	0	0	494	493	0	495	37	46	
13	0	0	0	0	485	493	0	496	37	46	
14	0	0	0	0	483	494	0	494	37	46	
15	0	0	0	0	492	492	0	498	37	46	
0	0	0	0	0	496	491	0	522	37	46	
1	0	0	0	0	495	488	0	534	37	46	
2	0	0	0	0	505	486	0	549	37	46	
3	0	0	0	0	507	481	0	561	37	46	
4	0	0	0	0	522	478	0	564	37	46	
5	0	0	0	0	524	475	0	574	37	46	
6	0	0	0	0	521	473	0	567	37	46	
7	0	0	0	0	522	472	0	568	37	46	
8	0	0	0	0	528	472	0	569	37	46	
9	0	0	0	0	521	471	0	565	37	46	
10	0	0	0	0	513	471	0	573	37	46	
11	0	0	0	0	500	472	0	567	37	46	
12	0	0	0	0	495	473	0	569	37	46	
13	0	0	0	0	497	474	0	568	37	46	
14	0	0	0	0	502	474	0	559	37	46	
15	0	0	0	0	505	474	0	564	37	46	
0	0	0	0	0	510	475	0	558	37	46	
1	0	0	0	0	506	475	0	562	37	46	
2	0	0	0	0	508	475	0	566	37	46	
3	0	0	0	0	499	474	0	561	37	46	
4	0	0	0	0	507	475	0	571	37	46	
5	0	0	0	0	505	475	0	568	37	46	
6	0	0	0	0	502	476	0	569	37	46	
7	0	0	0	0	497	477	0	568	37	46	
8	0	0	0	0	506	477	0	562	37	46	
9	0	0	0	0	505	479	0	569	37	46	
10	0	0	0	0	503	479	0	566	37	46	
11	0	0	0	0	503	480	0	561	37	46	
12	0	0	0	0	507	480	0	560	37	46	
13	0	0	0	0	503	481	0	566	37	46	
14	0	0	0	0	509	480	0	557	37	46	
15	0	0	0	0	507	480	0	551	37	46	
0	0	0	0	0	505	480	0	547	37	46	
1	0	0	0	0	512	480	0	544	37	46	
2	0	0	0	0	511	480	0	543	37	46	
3	0	0	0	0	507	480	0	540	37	46	
4	0	0	0	0	509	480	0	531	37	46	
5	0	0	0	0	505	480	0	519	37	46	
6	0	0	0	0	511	479	0	510	37	46	
7	0	0	0	0	502	479	0	502	37	45	
8	0	0	0	0	506	479	0	499	37	45	
9	0	0	0	0	503	480	0	496	37	45	
10	0	0	0	0	505	481	0	494	37	45	
11	0	0	0	0	496	483	0	493	37	45	
12	0	0	0	0	510	483	0	494	37	45	
13	0	0	0	0	504	484	0	495	37	45	
14	0	0	0	0	507	486	0	491	37	45	
15	0	0	0	0	501	487	0	486	37	45	
0	0	0	0	0	512	489	0	483	37	45	
1	0	0	0	0	502	490	0	485	37	45	
2	0	0	0	0	504	491	0	492	37	45	
3	0	0	0	0	513	492	0	517	37	45	
4	0	0	0	0	510	494	0	532	37	45	
5	0	0	0	0	508	494	0	545	37	45	
6	0	0	0	0	510	495	0	560	37	45	
7	0	0	0	0	504	496	0	560	37	45	
8	0	0	0	0	506	496	0	569	37	45	
9	0	0	0	0	511	497	0	570	37	45	
10	0	0	0	0	504	498	0	565	37	45	
11	0	0	0	0	502	499	0	558	37	45	
12	0	0	0	0	500	500	0	551	37	45	
13	0	0	0	0	511	502	0	546	37	45	
14	0	0	0	0	511	503	0	550	37	45	
15	0	0	0	0	500	505	0	550	37	45	
0	0	0	0	0	502	506	0	537	37	45	
1	0	0	0	0	503	508	0	524	37	45	
2	0	0	0	0	508	510	0	530	37	45	
3	0	0	0	0	514	512	0	531	37	45	
4	0	0	0	0	508	515	0	534	37	45	
5	0	0	0	0	504	516	0	540	37	45	
6	0	0	0	0	508	518	0	532	37	45	
7	0	0	0	0	508	519	0	527	37	45	
8	0	0	0	0	506	520	0	524	37	45	
9	0	0	0	0	512	522	0	523	37	45	
10	0	0	0	0	507	524	0	523	37	45	
11	0	0	0	0	504	524	0	521	37	45	
12	0	0	0	0	510	526	0	515	37	45	
13	0	0	0	0	509	527	0	505	37	45	
14	0	0	0	0	502	527	0	496	37	45	
15	0	0	0	0	500	528	0	489	37	45	
0	0	0	0	0	504	530	0	485	37	45	
1	0	0	0	0	501	531	0	483	37	45	
2	0	0	0	0	508	531	0	481	37	45	
3	0	0	0	0	509	533	0	481	37	45	
4	0	0	0	0	508	534	0	481	37	45	
5	0	0	0	0	508	535	0	481	37	45	
6	0	0	0	0	509	537	0	478	37	45	
7	0	0	0	0	508	537	0	473	37	45	
8	0	0	0	0	506	538	0	471	37	45	
9	0	0	0	0	502	539	0	471	37	45	
10	0	0	0	0	507	539	0	473	37	45	
11	0	0	0	0	498	540	0	474	37	45	
12	0	0	0	0	504	540	0	476	37	45	
13	0	0	0	0	506	540	0	478	37	45	
14	0	0	0	0	512	540	0	477	37	45	
15	0	0	0	0	507	540	0	473	37	45	
0	0	0	0	0	499	540	0	474	37	45	
1	0	0	0	0	503	539	0	475	37	45	
2	0	0	0	0	508	540	0	476	37	45	
3	0	0	0	0	507	540	0	479	37	45	
4	0	0	0	0	508	540	0	475	37	45	
5	0	0	0	0	511	540	0	475	37	46	
6	0	0	0	0	503	539	0	489	37	46	
7	0	0	0	0	508	539	0	505	37	46	
8	0	0	0	0	509	540	0	513	37	46	
9	0	0	0	0	506	540	0	531	37	46	
10	0	0	0	0	500	540	0	534	37	46	
11	0	0	0	0	506	541	0	542	37	46	
12	0	0	0	0	507	541	0	551	37	46	
13	0	0	0	0	505	542	0	547	37	46	
14	0	0	0	0	505	542	0	553	37	46	
15	0	0	0	0	511	540	0	544	37	46	
0	0	0	0	0	512	539	0	544	37	46	
1	0	0	0	0	505	539	0	546	37	46	
2	0	0	0	0	505	538	0	542	37	46	
3	0	0	0	0	506	537	0	536	37	46	
4	0	0	0	0	506	536	0	531	37	46	
5	0	0	0	0	501	536	0	529	37	46	
6	0	0	0	0	505	536	0	530	37	46	
7	0	0	0	0	510	535	0	539	37	46	
8	0	0	0	0	504	535	0	535	37	46	
9	0	0	0	0	509	534	0	533	37	46	
10	0	0	0	0	502	534	0	529	37	46	
11	0	0	0	0	500	534	0	528	37	46	
12	0	0	0	0	513	535	0	526	37	46	
13	0	0	0	0	504	536	0	523	37	46	
14	0	0	0	0	508	536	0	514	37	46	
15	0	0	0	0	506	536	0	519	37	46	
0	0	0	0	0	502	536	0	527	37	46	
1	0	0	0	0	499	535	0	520	37	46	
2	0	0	0	0	503	534	0	511	37	46	
3	0	0	0	0	504	533	0	499	37	46	
4	0	0	0	0	508	533	0	490	37	46	
5	0	0	0	0	507	533	0	481	37	46	
6	0	0	0	0	509	531	0	475	37	46	
7	0	0	0	0	507	530	0	468	37	46	
8	0	0	0	0	502	529	0	467	37	46	
9	0	0	0	0	508	528	0	468	37	46	
10	0	0	0	0	505	528	0	469	37	46	
11	0	0	0	0	504	527	0	472	37	46	
12	0	0	0	0	509	527	0	474	37	46	
13	0	0	0	0	508	527	0	473	37	46	
14	0	0	0	0	508	528	0	469	37	46	
15	0	0	0	0	503	528	0	465	37	46	
0	0	0	0	0	503	528	0	465	37	46	
1	0	0	0	0	500	529	0	469	37	46	
2	0	0	0	0	503	529	0	480	37	46	
3	0	0	0	0	508	529	0	478	37	46	
4	0	0	0	0	508	528	0	481	37	46	
5	0	0	0	0	505	528	0	482	37	46	
6	0	0	0	0	505	528	0	481	37	46	
7	0	0	0	0	505	528	0	476	38	46	
8	0	0	0	0	507	527	0	477	38	46	
9	0	0	0	0	508	527	0	491	38	46	
10	0	0	0	0	504	526	0	515	38	46	
11	0	0	0	0	512	526	0	531	38	46	
12	0	0	0	0	507	525	0	543	38	46	
13	0	0	0	0	508	524	0	558	38	46	
14	0	0	0	0	509	523	0	550	38	46	
15	0	0	0	0	501	523	0	558	38	46	
0	0	0	0	0	502	523	0	554	38	46	
1	0	0	0	0	504	523	0	561	38	46	
2	0	0	0	0	512	523	0	560	38	46	
3	0	0	0	0	507	523	0	558	38	46	
4	0	0	0	0	502	523	0	563	38	46	
5	0	0	0	0	504	524	0	557	38	46	
6	0	0	0	0	505	524	0	562	37	46	
7	0	0	0	0	508	524	0	556	37	46	
8	0	0	0	0	512	524	0	548	37	46	
9	0	0	0	0	513	523	0	541	37	46	
10	0	0	0	0	502	523	0	536	37	46	
11	0	0	0	0	502	522	0	533	37	46	
12	0	0	0	0	511	522	0	532	37	46	
13	0	0	0	0	504	522	0	525	37	46	
14	0	0	0	0	509	521	0	515	37	46	
15	0	0	0	0	503	519	0	505	37	46	
0	0	0	0	0	505	519	0	495	37	46	
1	0	0	0	0	503	519	0	487	37	46	
2	0	0	0	0	508	518	0	482	37	46	
3	0	0	0	0	504	519	0	478	37	46	
4	0	0	0	0	499	519	0	477	37	46	
5	0	0	0	0	511	519	0	476	37	46	
6	0	0	0	0	508	519	0	472	37	46	
7	0	0	0	0	506	519	0	470	37	46	
8	0	0	0	0	505	519	0	467	37	46	
9	0	0	0	0	508	520	0	469	37	46	
10	0	0	0	0	504	520	0	472	37	46	
11	0	0	0	0	504	520	0	472	37	46	
12	0	0	0	0	504	520	0	474	37	46	
13	0	0	0	0	501	520	0	472	37	46	
14	0	0	0	0	503	520	0	479	37	46	
15	0	0	0	0	510	519	0	467	37	46	
0	0	0	0	0	504	519	0	466	37	46	
1	0	0	0	0	508	519	0	468	37	46	
2	0	0	0	0	506	519	0	472	37	46	
3	0	0	0	0	502	518	0	477	37	46	
4	0	0	0	0	502	517	0	479	37	46	
5	0	0	0	0	507	518	0	478	37	46	
6	0	0	0	0	503	517	0	477	37	46	
7	0	0	0	0	506	517	0	481	37	46	
8	0	0	0	0	511	517	0	505	37	46	
9	0	0	0	0	515	516	0	518	37	46	
10	0	0	0	0	503	516	0	532	37	46	
11	0	0	0	0	504	517	0	543	37	46	
12	0	0	0	0	504	516	0	544	37	46	
13	0	0	0	0	504	516	0	553	37	46	
14	0	0	0	0	505	516	0	546	37	46	
15	0	0	0	0	508	517	0	543	37	46	
0	0	0	0	0	506	517	0	544	37	46	
1	0	0	0	0	504	516	0	533	37	46	
2	0	0	0	0	506	516	0	523	37	46	
3	0	0	0	0	507	516	0	531	37	46	
4	0	0	0	0	510	515	0	534	37	46	
5	0	0	0	0	505	515	0	538	37	46	
6	0	0	0	0	512	515	0	548	37	46	
7	0	0	0	0	501	515	0	543	37	46	
8	0	0	0	0	508	514	0	551	37	46	
9	0	0	0	0	509	513	0	551	37	46	
10	0	0	0	0	508	513	0	551	37	46	
11	0	0	0	0	503	511	0	557	37	46	
12	0	0	0	0	500	511	0	551	37	46	
13	0	0	0	0	509	511	0	557	37	46	
14	0	0	0	0	507	511	0	552	37	46	
15	0	0	0	0	507	512	0	547	37	46	
0	0	0	0	0	502	512	0	553	37	46	
1	0	0	0	0	508	513	0	549	37	46	
2	0	0	0	0	508	512	0	556	37	46	
3	0	0	0	0	505	513	0	556	37	46	
4	0	0	0	0	505	513	0	554	37	46	
5	0	0	0	0	512	513	0	558	37	46	
6	0	0	0	0	508	514	0	548	37	46	
7	0	0	0	0	510	513	0	542	37	46	
8	0	0	0	0	503	513	0	538	37	46	
9	0	0	0	0	503	513	0	534	37	46	
10	0	0	0	0	508	513	0	533	37	46	
11	0	0	0	0	503	512	0	529	37	46	
12	0	0	0	0	500	512	0	519	37	46	
13	0	0	0	0	497	512	0	508	37	46	
14	0	0	0	0	513	512	0	498	37	46	
15	0	0	0	0	501	511	0	489	37	46	
0	0	0	0	0	507	511	0	482	37	46	
1	0	0	0	0	504	511	0	478	37	46	
2	0	0	0	0	503	511	0	475	37	46	
3	0	0	0	0	514	511	0	473	37	46	
4	0	0	0	0	513	511	0	471	37	46	
5	0	0	0	0	500	511	0	469	37	46	
6	0	0	0	0	508	511	0	465	37	46	
7	0	0	0	0	508	512	0	462	37	46	
8	0	0	0	0	504	513	0	459	37	46	
9	0	0	0	0	500	513	0	465	37	46	
10	0	0	0	0	505	513	0	462	37	46	
11	0	0	0	0	507	513	0	463	37	46	
12	0	0	0	0	502	513	0	476	37	46	
13	0	0	0	0	509	513	0	461	37	46	
14	0	0	0	0	511	513	0	460	37	46	
15	0	0	0	0	508	512	0	459	37	46	
0	0	0	0	0	508	512	0	459	37	46	
1	0	0	0	0	504	511	0	460	37	46	
2	0	0	0	0	512	511	0	462	37	46	
3	0	0	0	0	510	511	0	465	37	46	
4	0	0	0	0	501	511	0	467	37	46	
5	0	0	0	0	503	512	0	468	37	46	
6	0	0	0	0	502	511	0	465	37	46	
7	0	0	0	0	504	512	0	462	37	46	
8	0	0	0	0	513	512	0	460	37	46	
9	0	0	0	0	507	513	0	461	37	46	
10	0	0	0	0	504	513	0	464	37	46	
11	0	0	0	0	505	514	0	466	37	46	
12	0	0	0	0	509	514	0	473	37	46	
13	0	0	0	0	511	514	0	469	37	46	
14	0	0	0	0	505	515	0	469	37	46	
15	0	0	0	0	506	515	0	480	37	46	
0	0	0	0	0	503	514	0	466	37	46	
1	0	0	0	0	507	514	0	466	37	46	
2	0	0	0	0	502	513	0	468	37	46	
3	0	0	0	0	504	513	0	470	37	46	
4	0	0	0	0	500	513	0	473	37	46	
5	0	0	0	0	512	512	0	472	37	46	
6	0	0	0	0	504	512	0	471	37	46	
7	0	0	0	0	506	512	0	468	37	46	
8	0	0	0	0	509	512	0	469	37	46	
9	0	0	0	0	502	512	0	471	37	46	
10	0	0	0	0	503	512	0	472	37	45	
11	0	0	0	0	502	512	0	473	37	46	
12	0	0	0	0	509	513	0	476	37	46	
13	0	0	0	0	508	514	0	476	37	45	
14	0	0	0	0	511	515	0	472	37	46	
15	0	0	0	0	509	515	0	467	37	45	
0	0	0	0	0	503	516	0	464	37	45	
1	0	0	0	0	506	515	0	469	37	45	
2	0	0	0	0	506	515	0	468	37	45	
3	0	0	0	0	504	515	0	471	38	45	
4	0	0	0	0	504	515	0	473	38	45	
5	0	0	0	0	507	515	0	473	38	45	
6	0	0	0	0	517	513	0	473	38	45	
7	0	0	0	0	506	512	0	471	38	45	
8	0	0	0	0	499	512	0	471	38	45	
9	0	0	0	0	503	511	0	471	38	45	
10	0	0	0	0	510	511	0	473	38	45	
11	0	0	0	0	507	511	0	477	38	45	
12	0	0	0	0	499	511	0	479	38	45	
13	0	0	0	0	508	512	0	477	38	45	
14	0	0	0	0	510	513	0	491	38	45	
15	0	0	0	0	502	513	0	506	38	45	
0	0	0	0	0	509	513	0	508	38	45	
1	0	0	0	0	510	515	0	505	38	45	
2	0	0	0	0	507	515	0	500	38	45	
3	0	0	0	0	511	515	0	495	38	45	
4	0	0	0	0	504	515	0	491	38	45	
5	0	0	0	0	503	516	0	489	38	45	
6	0	0	0	0	504	516	0	484	38	45	
7	0	0	0	0	512	516	0	478	38	45	
8	0	0	0	0	509	516	0	475	38	45	
9	0	0	0	0	502	516	0	477	38	45	
10	0	0	0	0	503	516	0	479	38	45	
11	0	0	0	0	505	515	0	481	38	45	
12	0	0	0	0	504	515	0	480	38	45	
13	0	0	0	0	499	515	0	496	38	45	
14	0	0	0	0	513	515	0	516	37	45	
15	0	0	0	0	506	515	0	527	38	45	
0	0	0	0	0	507	515	0	547	37	45	
1	0	0	0	0	505	515	0	551	37	45	
2	0	0	0	0	511	515	0	574	37	45	
3	0	0	0	0	499	515	0	564	37	45	
4	0	0	0	0	502	515	0	559	37	45	
5	0	0	0	0	502	515	0	563	37	45	
6	0	0	0	0	505	515	0	554	37	45	
7	0	0	0	0	509	515	0	552	37	45	
8	0	0	0	0	504	515	0	553	37	45	
9	0	0	0	0	508	516	0	549	37	45	
10	0	0	0	0	506	515	0	556	37	45	
11	0	0	0	0	503	515	0	551	37	45	
12	0	0	0	0	510	514	0	556	37	45	
13	0	0	0	0	507	513	0	556	37	45	
14	0	0	0	0	508	512	0	547	37	45	
15	0	0	0	0	500	510	0	552	37	45	
0	0	0	0	0	507	509	0	544	37	45	
1	0	0	0	0	499	508	0	546	37	45	
2	0	0	0	0	504	507	0	547	37	45	
3	0	0	0	0	511	506	0	542	37	45	
4	0	0	0	0	513	505	0	549	37	45	
5	0	0	0	0	509	504	0	542	37	45	
6	0	0	0	0	508	504	0	542	37	45	
7	0	0	0	0	500	505	0	543	37	45	
8	0	0	0	0	507	504	0	537	37	45	
9	0	0	0	0	507	504	0	544	37	45	
10	0	0	0	0	507	504	0	540	38	45	
11	0	0	0	0	504	504	0	545	37	45	
12	0	0	0	0	504	504	0	544	37	45	
13	0	0	0	0	504	503	0	540	37	45	
14	0	0	0	0	505	502	0	546	38	45	
15	0	0	0	0	501	502	0	536	38	45	
0	0	0	0	0	503	502	0	537	38	45	
1	0	0	0	0	512	501	0	539	38	45	
2	0	0	0	0	511	501	0	533	38	45	
3	0	0	0	0	504	500	0	528	38	45	
4	0	0	0	0	507	500	0	524	38	45	
5	0	0	0	0	505	499	0	522	38	45	
6	0	0	0	0	508	499	0	523	38	45	
7	0	0	0	0	503	499	0	531	38	45	
8	0	0	0	0	510	499	0	528	38	45	
9	0	0	0	0	505	500	0	526	38	45	
10	0	0	0	0	506	501	0	523	38	45	
11	0	0	0	0	503	502	0	522	38	45	
12	0	0	0	0	505	503	0	521	38	45	
13	0	0	0	0	505	504	0	519	37	45	
14	0	0	0	0	513	504	0	510	37	45	
15	0	0	0	0	504	505	0	515	37	45	
0	0	0	0	0	505	505	0	522	37	45	
1	0	0	0	0	507	505	0	514	37	45	
2	0	0	0	0	506	505	0	503	37	45	
3	0	0	0	0	503	505	0	491	37	45	
4	0	0	0	0	506	505	0	481	37	45	
5	0	0	0	0	507	505	0	472	37	45	
6	0	0	0	0	502	504	0	464	37	45	
7	0	0	0	0	506	504	0	456	37	45	
8	0	0	0	0	508	504	0	455	37	45	
9	0	0	0	0	505	504	0	457	37	45	
10	0	0	0	0	510	503	0	458	37	45	
11	0	0	0	0	504	503	0	461	37	45	
12	0	0	0	0	508	503	0	463	37	45	
13	0	0	0	0	508	504	0	460	37	45	
14	0	0	0	0	508	504	0	456	37	45	
15	0	0	0	0	503	505	0	455	37	45	
0	0	0	0	0	499	505	0	455	37	45	
1	0	0	0	0	512	506	0	458	37	45	
2	0	0	0	0	505	507	0	460	37	45	
3	0	0	0	0	499	508	0	462	37	45	
4	0	0	0	0	501	508	0	465	37	45	
5	0	0	0	0	508	508	0	466	37	45	
6	0	0	0	0	511	508	0	463	37	45	
7	0	0	0	0	510	507	0	460	37	45	
8	0	0	0	0	506	507	0	476	37	45	
9	0	0	0	0	502	507	0	495	37	45	
10	0	0	0	0	506	506	0	508	37	45	
11	0	0	0	0	505	505	0	529	37	45	
12	0	0	0	0	506	504	0	533	37	45	
13	0	0	0	0	505	504	0	540	37	45	
14	0	0	0	0	509	504	0	545	37	45	
15	0	0	0	0	509	504	0	540	37	45	
0	0	0	0	0	504	503	0	549	37	45	
1	0	0	0	0	505	504	0	547	37	45	
2	0	0	0	0	502	504	0	550	37	45	
3	0	0	0	0	500	504	0	554	37	45	
4	0	0	0	0	507	503	0	551	37	45	
5	0	0	0	0	511	504	0	558	37	45	
6	0	0	0	0	505	504	0	549	37	45	
7	0	0	0	0	505	504	0	541	37	45	
8	0	0	0	0	504	504	0	536	37	45	
9	0	0	0	0	504	504	0	531	37	45	
10	0	0	0	0	510	504	0	529	37	45	
11	0	0	0	0	507	504	0	529	37	45	
12	0	0	0	0	510	504	0	519	37	45	
13	0	0	0	0	509	504	0	510	37	45	
14	0	0	0	0	505	503	0	499	37	45	
15	0	0	0	0	502	504	0	492	37	45	
0	0	0	0	0	502	503	0	486	37	45	
1	0	0	0	0	505	502	0	481	37	45	
2	0	0	0	0	505	503	0	480	37	45	
3	0	0	0	0	503	502	0	479	37	45	
4	0	0	0	0	508	502	0	478	37	45	
5	0	0	0	0	500	503	0	478	37	45	
6	0	0	0	0	506	503	0	476	37	45	
7	0	0	0	0	511	504	0	475	37	45	
8	0	0	0	0	504	504	0	474	37	45	
9	0	0	0	0	517	505	0	476	37	45	
10	0	0	0	0	507	506	0	480	37	45	
11	0	0	0	0	500	508	0	481	37	45	
12	0	0	0	0	505	509	0	483	37	45	
13	0	0	0	0	501	510	0	485	37	45	
14	0	0	0	0	505	512	0	483	37	45	
15	0	0	0	0	502	514	0	479	37	45	
0	0	0	0	0	502	516	0	479	37	45	
1	0	0	0	0	511	518	0	481	37	45	
2	0	0	0	0	509	518	0	483	37	45	
3	0	0	0	0	510	517	0	485	37	45	
4	0	0	0	0	507	517	0	487	37	45	
5	0	0	0	0	508	515	0	487	37	45	
6	0	0	0	0	504	512	0	498	37	45	
7	0	0	0	0	506	510	0	516	37	45	
8	0	0	0	0	507	507	0	523	37	45	
9	0	0	0	0	503	502	0	542	37	45	
10	0	0	0	0	507	497	0	549	37	45	
11	0	0	0	0	509	491	0	555	37	45	
12	0	0	0	0	503	483	0	564	37	45	
13	0	0	0	0	499	475	0	558	37	45	
14	0	0	0	0	500	467	0	564	37	45	
15	0	0	0	0	504	461	0	559	37	45	
0	0	0	0	0	507	456	0	556	37	45	
1	0	0	0	0	508	453	0	563	37	45	
2	0	0	0	0	508	450	0	565	37	45	
3	0	0	0	0	508	448	0	563	37	45	
4	0	0	0	0	504	447	0	562	37	45	
5	0	0	0	0	507	447	0	560	37	45	
6	0	0	0	0	506	447	0	563	37	45	
7	0	0	0	0	506	447	0	553	37	45	
8	0	0	0	0	510	449	0	546	37	45	
9	0	0	0	0	511	451	0	540	37	45	
10	0	0	0	0	499	453	0	536	37	45	
11	0	0	0	0	512	455	0	533	37	45	
12	0	0	0	0	506	457	0	527	37	45	
13	0	0	0	0	500	460	0	528	37	45	
14	0	0	0	0	510	462	0	507	37	45	
15	0	0	0	0	492	462	0	499	38	45	
0	0	0	0	0	476	456	0	487	38	45	
1	0	0	0	0	506	453	0	483	38	45	
2	0	0	0	0	517	452	0	480	38	45	
3	0	0	0	0	532	455	0	476	38	45	
4	0	0	0	0	526	463	0	476	38	45	
5	0	0	0	0	527	474	0	476	38	45	
6	0	0	0	0	517	486	0	472	38	45	
7	0	0	0	0	511	500	0	470	38	45	
8	0	0	0	0	513	515	0	469	38	45	
9	0	0	0	0	499	530	0	468	38	45	
10	0	0	0	0	492	545	0	469	38	45	
11	0	0	0	0	493	560	0	472	38	45	
12	0	0	0	0	496	574	0	474	38	45	
13	0	0	0	0	492	586	0	473	38	45	
14	0	0	0	0	492	596	0	473	38	45	
15	0	0	0	0	492	603	0	470	38	45	
0	0	0	0	0	494	606	0	469	38	45	
1	0	0	0	0	502	606	0	469	38	45	
2	0	0	0	0	506	602	0	470	38	45	
3	0	0	0	0	504	596	0	470	38	45	
4	0	0	0	0	519	592	0	470	38	45	
5	0	0	0	0	519	589	0	471	38	45	
6	0	0	0	0	515	586	0	468	38	45	
7	0	0	0	0	526	583	0	483	38	45	
8	0	0	0	0	519	581	0	501	38	45	
9	0	0	0	0	519	580	0	512	38	45	
10	0	0	0	0	512	580	0	532	38	45	
11	0	0	0	0	505	579	0	539	38	45	
12	0	0	0	0	509	579	0	547	38	45	
13	0	0	0	0	515	580	0	552	38	45	
14	0	0	0	0	491	579	0	547	38	45	
15	0	0	0	0	488	579	0	553	38	45	
0	0	0	0	0	496	579	0	549	38	45	
1	0	0	0	0	481	575	0	559	38	45	
2	0	0	0	0	489	570	0	550	38	46	
3	0	0	0	0	494	563	0	545	38	46	
4	0	0	0	0	495	556	0	540	38	46	
5	0	0	0	0	499	547	0	548	38	46	
6	0	0	0	0	510	539	0	547	38	46	
7	0	0	0	0	505	531	0	540	38	46	
8	0	0	0	0	524	524	0	533	38	46	
9	0	0	0	0	519	519	0	529	38	46	
10	0	0	0	0	522	515	0	526	38	46	
11	0	0	0	0	522	511	0	525	38	46	
12	0	0	0	0	531	509	0	517	38	46	
13	0	0	0	0	523	508	0	507	38	46	
14	0	0	0	0	512	507	0	498	38	46	
15	0	0	0	0	513	507	0	487	38	46	
0	0	0	0	0	509	508	0	479	38	46	
1	0	0	0	0	502	509	0	474	38	46	
2	0	0	0	0	494	510	0	470	38	46	
3	0	0	0	0	488	510	0	469	38	46	
4	0	0	0	0	493	511	0	468	38	46	
5	0	0	0	0	487	510	0	467	37	46	
6	0	0	0	0	487	509	0	467	37	46	
7	0	0	0	0	478	507	0	464	37	46	
8	0	0	0	0	492	505	0	462	37	46	
9	0	0	0	0	498	502	0	463	37	46	
10	0	0	0	0	510	498	0	462	37	46	
11	0	0	0	0	511	494	0	462	37	46	
12	0	0	0	0	523	491	0	463	37	46	
13	0	0	0	0	523	488	0	462	37	46	
14	0	0	0	0	523	485	0	460	37	46	
15	0	0	0	0	532	483	0	456	37	46	
0	0	0	0	0	522	482	0	455	37	46	
1	0	0	0	0	521	482	0	455	37	46	
2	0	0	0	0	515	483	0	459	37	46	
3	0	0	0	0	506	485	0	460	37	46	
4	0	0	0	0	505	487	0	463	37	46	
5	0	0	0	0	499	491	0	473	37	46	
6	0	0	0	0	497	493	0	476	37	46	
7	0	0	0	0	491	496	0	496	37	46	
8	0	0	0	0	490	499	0	503	37	46	
9	0	0	0	0	473	500	0	519	37	46	
10	0	0	0	0	489	500	0	531	37	46	
11	0	0	0	0	496	498	0	534	37	46	
12	0	0	0	0	496	497	0	547	37	46	
13	0	0	0	0	503	495	0	545	37	46	
14	0	0	0	0	508	492	0	547	37	46	
15	0	0	0	0	504	488	0	548	37	46	
0	0	0	0	0	520	485	0	542	37	46	
1	0	0	0	0	519	483	0	550	37	46	
2	0	0	0	0	519	480	0	543	37	46	
3	0	0	0	0	529	479	0	538	37	46	
4	0	0	0	0	526	479	0	537	37	46	
5	0	0	0	0	521	480	0	543	37	46	
6	0	0	0	0	512	481	0	536	37	46	
7	0	0	0	0	512	483	0	529	37	46	
8	0	0	0	0	507	486	0	526	37	46	
9	0	0	0	0	509	489	0	524	37	46	
10	0	0	0	0	490	492	0	523	37	46	
11	0	0	0	0	485	495	0	520	37	46	
12	0	0	0	0	493	497	0	510	37	46	
13	0	0	0	0	484	498	0	499	37	46	
14	0	0	0	0	494	498	0	489	37	46	
15	0	0	0	0	484	497	0	483	37	46	
0	0	0	0	0	489	495	0	478	37	46	
1	0	0	0	0	501	492	0	474	37	46	
2	0	0	0	0	508	489	0	472	37	46	
3	0	0	0	0	511	485	0	472	37	46	
4	0	0	0	0	521	482	0	471	37	46	
5	0	0	0	0	525	479	0	473	37	46	
6	0	0	0	0	522	478	0	470	37	46	
7	0	0	0	0	527	476	0	469	37	46	
8	0	0	0	0	527	477	0	468	37	46	
9	0	0	0	0	526	478	0	469	37	46	
10	0	0	0	0	511	479	0	471	37	46	
11	0	0	0	0	511	483	0	472	37	46	
12	0	0	0	0	505	485	0	472	37	46	
13	0	0	0	0	504	488	0	471	37	46	
14	0	0	0	0	494	491	0	472	37	46	
15	0	0	0	0	485	494	0	468	37	46	
0	0	0	0	0	491	497	0	468	37	46	
1	0	0	0	0	480	497	0	468	37	46	
2	0	0	0	0	489	497	0	471	37	46	
3	0	0	0	0	487	496	0	472	37	46	
4	0	0	0	0	496	494	0	476	37	46	
5	0	0	0	0	503	492	0	477	37	46	
6	0	0	0	0	511	488	0	470	37	46	
7	0	0	0	0	513	485	0	467	37	46	
8	0	0	0	0	514	481	0	466	37	46	
9	0	0	0	0	521	478	0	468	37	46	
10	0	0	0	0	523	476	0	471	37	46	
11	0	0	0	0	525	476	0	476	37	46	
12	0	0	0	0	523	476	0	475	37	46	
13	0	0	0	0	527	477	0	477	37	46	
14	0	0	0	0	512	479	0	475	37	46	
15	0	0	0	0	508	481	0	472	37	46	
0	0	0	0	0	507	483	0	470	37	46	
1	0	0	0	0	503	486	0	472	37	46	
2	0	0	0	0	491	488	0	476	37	46	
3	0	0	0	0	491	491	0	478	37	46	
4	0	0	0	0	490	493	0	480	37	46	
5	0	0	0	0	480	494	0	479	37	46	
6	0	0	0	0	490	494	0	476	37	46	
7	0	0	0	0	494	493	0	481	37	46	
8	0	0	0	0	501	492	0	504	37	46	
9	0	0	0	0	499	489	0	517	37	46	
10	0	0	0	0	497	487	0	532	37	46	
11	0	0	0	0	502	483	0	546	37	46	
12	0	0	0	0	524	479	0	548	37	46	
13	0	0	0	0	520	477	0	559	37	46	
14	0	0	0	0	524	475	0	553	37	46	
15	0	0	0	0	531	474	0	555	37	46	
0	0	0	0	0	526	474	0	557	37	46	
1	0	0	0	0	520	474	0	552	37	46	
2	0	0	0	0	514	476	0	559	37	46	
3	0	0	0	0	510	478	0	554	37	46	
4	0	0	0	0	503	481	0	554	37	46	
5	0	0	0	0	508	484	0	553	37	46	
6	0	0	0	0	489	487	0	546	37	47	
7	0	0	0	0	492	490	0	551	37	47	
8	0	0	0	0	492	491	0	546	37	47	
9	0	0	0	0	486	493	0	549	37	47	
10	0	0	0	0	488	493	0	551	37	47	
11	0	0	0	0	493	492	0	546	37	47	
12	0	0	0	0	498	491	0	555	37	47	
13	0	0	0	0	499	488	0	551	37	47	
14	0	0	0	0	501	486	0	552	37	47	
15	0	0	0	0	512	481	0	552	37	47	
0	0	0	0	0	519	479	0	544	37	47	
1	0	0	0	0	524	477	0	540	37	47	
2	0	0	0	0	521	475	0	536	37	47	
3	0	0	0	0	529	474	0	534	37	47	
4	0	0	0	0	523	473	0	532	37	47	
5	0	0	0	0	524	474	0	527	37	47	
6	0	0	0	0	516	476	0	519	37	47	
7	0	0	0	0	508	478	0	527	37	47	
8	0	0	0	0	498	480	0	530	37	47	
9	0	0	0	0	501	484	0	522	37	47	
10	0	0	0	0	496	487	0	511	37	47	
11	0	0	0	0	495	490	0	509	37	47	
12	0	0	0	0	492	492	0	491	37	47	
13	0	0	0	0	484	493	0	484	37	47	
14	0	0	0	0	488	493	0	479	37	47	
15	0	0	0	0	492	492	0	476	37	47	
0	0	0	0	0	493	490	0	474	37	47	
1	0	0	0	0	500	487	0	475	37	47	
2	0	0	0	0	502	483	0	475	37	47	
3	0	0	0	0	511	480	0	476	37	47	
4	0	0	0	0	517	477	0	478	37	47	
5	0	0	0	0	524	474	0	478	37	47	
6	0	0	0	0	524	472	0	487	37	47	
7	0	0	0	0	530	472	0	470	37	47	
8	0	0	0	0	521	472	0	469	37	47	
9	0	0	0	0	520	473	0	471	37	47	
10	0	0	0	0	517	475	0	473	37	47	
11	0	0	0	0	510	477	0	475	37	47	
12	0	0	0	0	508	480	0	476	37	47	
13	0	0	0	0	492	483	0	476	37	47	
14	0	0	0	0	493	486	0	473	37	47	
15	0	0	0	0	497	488	0	471	37	47	
0	0	0	0	0	492	490	0	491	37	47	
1	0	0	0	0	482	491	0	507	37	47	
2	0	0	0	0	492	491	0	519	37	47	
3	0	0	0	0	496	489	0	537	37	47	
4	0	0	0	0	491	487	0	539	37	47	
5	0	0	0	0	496	484	0	548	37	47	
6	0	0	0	0	500	481	0	544	37	47	
7	0	0	0	0	508	478	0	541	37	47	
8	0	0	0	0	517	475	0	548	37	47	
9	0	0	0	0	522	472	0	543	37	47	
10	0	0	0	0	521	470	0	552	37	47	
11	0	0	0	0	525	468	0	548	37	47	
12	0	0	0	0	521	468	0	544	37	47	
13	0	0	0	0	529	470	0	549	37	47	
14	0	0	0	0	512	471	0	538	37	47	
15	0	0	0	0	508	472	0	531	37	47	
0	0	0	0	0	500	476	0	527	37	47	
1	0	0	0	0	501	480	0	525	37	47	
2	0	0	0	0	499	483	0	524	37	47	
3	0	0	0	0	496	486	0	521	37	47	
4	0	0	0	0	490	488	0	512	37	47	
5	0	0	0	0	483	489	0	501	37	47	
6	0	0	0	0	485	489	0	493	37	47	
7	0	0	0	0	494	488	0	486	37	47	
8	0	0	0	0	492	488	0	481	37	47	
9	0	0	0	0	504	487	0	483	37	47	
10	0	0	0	0	500	484	0	478	37	47	
11	0	0	0	0	503	480	0	477	37	47	
12	0	0	0	0	518	478	0	477	37	47	
13	0	0	0	0	523	476	0	476	37	47	
14	0	0	0	0	529	473	0	472	37	47	
15	0	0	0	0	524	473	0	468	37	47	
0	0	0	0	0	517	473	0	467	37	47	
1	0	0	0	0	523	475	0	468	37	47	
2	0	0	0	0	517	476	0	472	37	47	
3	0	0	0	0	511	479	0	474	37	47	
4	0	0	0	0	508	481	0	477	37	47	
5	0	0	0	0	504	483	0	478	37	47	
6	0	0	0	0	493	485	0	480	37	47	
7	0	0	0	0	489	487	0	478	37	47	
8	0	0	0	0	487	489	0	481	37	47	
9	0	0	0	0	490	488	0	482	37	47	
10	0	0	0	0	488	487	0	483	37	47	
11	0	0	0	0	487	487	0	483	37	47	
12	0	0	0	0	498	486	0	487	37	47	
13	0	0	0	0	504	487	0	487	37	47	
14	0	0	0	0	504	488	0	503	37	47	
15	0	0	0	0	516	488	0	518	37	47	
0	0	0	0	0	515	487	0	527	37	47	
1	0	0	0	0	515	486	0	546	37	48	
2	0	0	0	0	523	484	0	550	37	48	
3	0	0	0	0	530	484	0	557	37	48	
4	0	0	0	0	526	484	0	565	37	48	
5	0	0	0	0	531	484	0	562	37	48	
6	0	0	0	0	519	487	0	568	38	48	
7	0	0	0	0	504	491	0	557	38	48	
8	0	0	0	0	504	494	0	557	38	48	
9	0	0	0	0	503	497	0	557	38	48	
10	0	0	0	0	487	501	0	551	38	48	
11	0	0	0	0	486	505	0	547	38	48	
12	0	0	0	0	488	510	0	541	38	48	
13	0	0	0	0	486	512	0	537	38	48	
14	0	0	0	0	487	514	0	537	38	48	
15	0	0	0	0	486	515	0	544	38	48	
0	0	0	0	0	494	515	0	540	38	48	
1	0	0	0	0	502	513	0	536	38	48	
2	0	0	0	0	512	511	0	532	38	48	
3	0	0	0	0	504	510	0	529	38	48	
4	0	0	0	0	523	509	0	527	38	48	
5	0	0	0	0	516	507	0	524	38	48	
6	0	0	0	0	527	507	0	516	38	48	
7	0	0	0	0	527	507	0	520	38	48	
8	0	0	0	0	519	508	0	527	38	48	
9	0	0	0	0	519	509	0	521	38	48	
10	0	0	0	0	509	511	0	511	38	48	
11	0	0	0	0	508	515	0	502	38	48	
12	0	0	0	0	511	519	0	491	38	48	
13	0	0	0	0	508	525	0	484	38	48	
14	0	0	0	0	493	529	0	476	38	48	
15	0	0	0	0	494	532	0	469	38	48	
0	0	0	0	0	489	535	0	468	37	48	
1	0	0	0	0	484	536	0	466	37	48	
2	0	0	0	0	494	537	0	468	37	48	
3	0	0	0	0	485	536	0	470	37	48	
4	0	0	0	0	494	535	0	472	37	48	
5	0	0	0	0	497	533	0	471	37	48	
6	0	0	0	0	505	529	0	467	37	47	
7	0	0	0	0	502	527	0	463	37	48	
8	0	0	0	0	522	525	0	462	37	47	
9	0	0	0	0	527	524	0	466	37	47	
10	0	0	0	0	523	522	0	468	37	47	
11	0	0	0	0	525	521	0	469	37	47	
12	0	0	0	0	516	522	0	471	37	47	
13	0	0	0	0	521	523	0	471	37	47	
14	0	0	0	0	511	525	0	468	37	47	
15	0	0	0	0	508	527	0	465	37	47	
0	0	0	0	0	509	530	0	482	37	47	
1	0	0	0	0	508	534	0	505	37	47	
2	0	0	0	0	491	538	0	518	37	47	
3	0	0	0	0	493	541	0	540	37	47	
4	0	0	0	0	488	543	0	545	37	47	
5	0	0	0	0	484	543	0	552	37	47	
6	0	0	0	0	486	543	0	557	37	47	
7	0	0	0	0	490	543	0	544	37	47	
8	0	0	0	0	496	541	0	553	37	47	
9	0	0	0	0	506	539	0	549	37	47	
10	0	0	0	0	502	536	0	542	37	47	
11	0	0	0	0	507	534	0	537	37	47	
12	0	0	0	0	520	530	0	532	37	47	
13	0	0	0	0	521	527	0	527	37	47	
14	0	0	0	0	519	525	0	535	37	47	
15	0	0	0	0	522	523	0	534	37	47	
0	0	0	0	0	524	522	0	529	37	47	
1	0	0	0	0	522	523	0	527	37	47	
2	0	0	0	0	512	524	0	524	37	47	
3	0	0	0	0	519	526	0	524	37	47	
4	0	0	0	0	508	527	0	540	37	47	
5	0	0	0	0	506	530	0	528	37	47	
6	0	0	0	0	495	533	0	511	37	47	
7	0	0	0	0	487	535	0	500	37	47	
8	0	0	0	0	488	537	0	494	37	47	
9	0	0	0	0	482	536	0	487	37	47	
10	0	0	0	0	487	536	0	484	37	47	
11	0	0	0	0	486	536	0	483	37	47	
12	0	0	0	0	494	534	0	484	37	47	
13	0	0	0	0	503	531	0	483	37	47	
14	0	0	0	0	505	528	0	480	37	47	
15	0	0	0	0	511	525	0	477	37	47	
0	0	0	0	0	515	522	0	474	37	47	
1	0	0	0	0	512	519	0	480	37	47	
2	0	0	0	0	524	517	0	475	37	47	
3	0	0	0	0	526	515	0	476	37	47	
4	0	0	0	0	523	513	0	478	37	47	
5	0	0	0	0	534	513	0	480	37	47	
6	0	0	0	0	520	514	0	479	37	47	
7	0	0	0	0	507	515	0	475	37	47	
8	0	0	0	0	509	518	0	475	37	47	
9	0	0	0	0	513	522	0	476	37	47	
10	0	0	0	0	485	525	0	478	37	47	
11	0	0	0	0	484	527	0	480	37	47	
12	0	0	0	0	492	529	0	482	37	47	
13	0	0	0	0	483	529	0	482	37	47	
14	0	0	0	0	492	529	0	480	37	47	
15	0	0	0	0	489	528	0	484	37	47	
0	0	0	0	0	495	526	0	508	37	47	
1	0	0	0	0	508	523	0	520	37	47	
2	0	0	0	0	499	520	0	536	37	46	
3	0	0	0	0	515	517	0	549	37	46	
4	0	0	0	0	518	514	0	548	37	46	
5	0	0	0	0	515	511	0	558	37	46	
6	0	0	0	0	524	509	0	551	37	46	
7	0	0	0	0	530	507	0	553	37	46	
8	0	0	0	0	522	507	0	558	37	46	
9	0	0	0	0	520	508	0	553	37	46	
10	0	0	0	0	511	509	0	559	37	46	
11	0	0	0	0	510	511	0	554	37	46	
12	0	0	0	0	508	513	0	558	37	46	
13	0	0	0	0	503	517	0	559	37	46	
14	0	0	0	0	487	519	0	551	37	46	
15	0	0	0	0	488	522	0	545	37	46	
0	0	0	0	0	487	524	0	539	37	46	
1	0	0	0	0	483	525	0	536	37	46	
2	0	0	0	0	483	525	0	533	37	46	
3	0	0	0	0	492	524	0	527	37	46	
4	0	0	0	0	501	522	0	516	37	46	
5	0	0	0	0	504	519	0	507	37	46	
6	0	0	0	0	504	516	0	497	37	46	
7	0	0	0	0	508	513	0	490	37	46	
8	0	0	0	0	512	510	0	484	37	46	
9	0	0	0	0	518	508	0	482	37	46	
10	0	0	0	0	519	506	0	480	37	46	
11	0	0	0	0	531	505	0	478	37	46	
12	0	0	0	0	521	506	0	487	37	46	
13	0	0	0	0	524	507	0	481	37	46	
14	0	0	0	0	515	509	0	478	37	46	
15	0	0	0	0	509	511	0	473	37	46	
0	0	0	0	0	510	514	0	471	37	46	
1	0	0	0	0	499	517	0	473	37	46	
2	0	0	0	0	491	519	0	477	37	46	
3	0	0	0	0	488	522	0	481	37	46	
4	0	0	0	0	486	525	0	483	37	46	
5	0	0	0	0	483	526	0	482	37	46	
6	0	0	0	0	491	528	0	480	37	46	
7	0	0	0	0	493	527	0	477	37	46	
8	0	0	0	0	496	526	0	477	37	46	
9	0	0	0	0	505	525	0	478	37	46	
10	0	0	0	0	508	520	0	477	37	46	
11	0	0	0	0	500	515	0	478	37	46	
12	0	0	0	0	519	511	0	478	37	46	
13	0	0	0	0	512	507	0	480	37	46	
14	0	0	0	0	526	505	0	499	37	46	
15	0	0	0	0	525	504	0	510	37	46	
0	0	0	0	0	521	504	0	518	37	46	
1	0	0	0	0	528	506	0	536	37	46	
2	0	0	0	0	511	508	0	540	37	46	
3	0	0	0	0	511	511	0	552	37	46	
4	0	0	0	0	511	514	0	555	37	46	
5	0	0	0	0	507	515	0	556	37	46	
6	0	0	0	0	490	519	0	563	37	46	
7	0	0	0	0	492	519	0	555	37	46	
8	0	0	0	0	492	521	0	561	37	46	
9	0	0	0	0	481	523	0	564	37	46	
10	0	0	0	0	489	525	0	560	37	46	
11	0	0	0	0	511	526	0	556	37	46	
12	0	0	0	0	510	527	0	552	37	46	
13	0	0	0	0	511	528	0	549	37	46	
14	0	0	0	0	509	529	0	555	37	46	
15	0	0	0	0	508	531	0	556	38	46	
0	0	0	0	0	506	532	0	555	38	46	
1	0	0	0	0	510	534	0	543	38	46	
2	0	0	0	0	511	534	0	540	38	46	
3	0	0	0	0	504	534	0	529	38	46	
4	0	0	0	0	514	534	0	519	38	46	
5	0	0	0	0	505	533	0	509	38	46	
6	0	0	0	0	507	532	0	501	38	46	
7	0	0	0	0	508	532	0	493	38	46	
8	0	0	0	0	509	531	0	487	38	46	
9	0	0	0	0	501	531	0	486	38	46	
10	0	0	0	0	508	529	0	490	38	46	
11	0	0	0	0	499	528	0	488	38	46	
12	0	0	0	0	512	528	0	489	38	46	
13	0	0	0	0	504	527	0	488	38	46	
14	0	0	0	0	505	527	0	487	38	46	
15	0	0	0	0	507	526	0	483	38	46	
0	0	0	0	0	508	526	0	481	38	46	
1	0	0	0	0	505	526	0	483	38	46	
2	0	0	0	0	515	526	0	485	38	46	
3	0	0	0	0	502	526	0	487	38	46	
4	0	0	0	0	510	526	0	489	38	46	
5	0	0	0	0	504	527	0	491	38	46	
6	0	0	0	0	503	528	0	489	38	46	
7	0	0	0	0	505	528	0	486	38	46	
8	0	0	0	0	501	529	0	483	38	47	
9	0	0	0	0	501	529	0	485	38	47	
10	0	0	0	0	501	530	0	488	38	47	
11	0	0	0	0	506	530	0	490	38	47	
12	0	0	0	0	507	530	0	491	38	47	
13	0	0	0	0	499	530	0	492	38	47	
14	0	0	0	0	507	529	0	492	38	47	
15	0	0	0	0	506	528	0	489	38	47	
0	0	0	0	0	505	528	0	488	38	47	
1	0	0	0	0	508	527	0	487	38	47	
2	0	0	0	0	509	527	0	486	38	47	
3	0	0	0	0	506	527	0	488	38	47	
4	0	0	0	0	511	526	0	488	38	47	
5	0	0	0	0	506	526	0	487	38	47	
6	0	0	0	0	507	526	0	483	38	47	
7	0	0	0	0	507	527	0	480	38	47	
8	0	0	0	0	504	527	0	482	38	47	
9	0	0	0	0	510	527	0	480	38	47	
10	0	0	0	0	502	527	0	493	38	47	
11	0	0	0	0	509	527	0	491	38	47	
12	0	0	0	0	512	527	0	486	38	47	
13	0	0	0	0	509	527	0	487	38	47	
14	0	0	0	0	505	528	0	485	38	47	
15	0	0	0	0	502	529	0	481	38	47	
0	0	0	0	0	510	529	0	480	38	47	
1	0	0	0	0	510	528	0	483	38	47	
2	0	0	0	0	504	527	0	486	38	47	
3	0	0	0	0	509	527	0	488	38	47	
4	0	0	0	0	503	527	0	490	38	47	
5	0	0	0	0	504	526	0	491	38	47	
6	0	0	0	0	506	526	0	490	38	47	
7	0	0	0	0	498	526	0	489	38	47	
8	0	0	0	0	513	527	0	490	38	47	
9	0	0	0	0	507	526	0	492	38	47	
10	0	0	0	0	503	527	0	510	38	47	
11	0	0	0	0	503	527	0	532	38	47	
12	0	0	0	0	504	526	0	541	38	47	
13	0	0	0	0	504	527	0	556	38	47	
14	0	0	0	0	510	527	0	554	38	47	
15	0	0	0	0	510	528	0	557	38	47	
0	0	0	0	0	507	528	0	560	38	47	
1	0	0	0	0	497	528	0	557	38	47	
2	0	0	0	0	506	527	0	568	38	47	
3	0	0	0	0	511	527	0	566	38	47	
4	0	0	0	0	509	527	0	569	38	47	
5	0	0	0	0	504	527	0	571	38	47	
6	0	0	0	0	504	528	0	562	38	47	
7	0	0	0	0	507	527	0	566	38	47	
8	0	0	0	0	511	526	0	560	38	47	
9	0	0	0	0	504	526	0	561	38	47	
10	0	0	0	0	510	527	0	566	38	47	
11	0	0	0	0	503	527	0	561	37	47	
12	0	0	0	0	505	528	0	568	37	47	
13	0	0	0	0	512	528	0	560	37	47	
14	0	0	0	0	507	527	0	561	37	47	
15	0	0	0	0	509	528	0	561	37	47	
0	0	0	0	0	506	527	0	555	37	47	
1	0	0	0	0	508	526	0	564	37	47	
2	0	0	0	0	499	526	0	561	37	47	
3	0	0	0	0	498	525	0	564	37	47	
4	0	0	0	0	499	525	0	568	37	47	
5	0	0	0	0	511	524	0	561	37	47	
6	0	0	0	0	510	524	0	568	37	47	
7	0	0	0	0	506	524	0	560	37	47	
8	0	0	0	0	502	525	0	560	37	47	
9	0	0	0	0	509	524	0	563	37	47	
10	0	0	0	0	505	524	0	560	37	47	
11	0	0	0	0	512	525	0	569	37	47	
12	0	0	0	0	504	524	0	567	37	47	
13	0	0	0	0	503	523	0	569	37	47	
14	0	0	0	0	508	523	0	568	37	47	
15	0	0	0	0	505	524	0	559	37	47	
0	0	0	0	0	503	524	0	566	37	47	
1	0	0	0	0	511	524	0	560	37	46	
2	0	0	0	0	504	524	0	563	37	46	
3	0	0	0	0	510	524	0	565	37	46	
4	0	0	0	0	511	524	0	559	37	46	
5	0	0	0	0	508	524	0	566	37	46	
6	0	0	0	0	499	524	0	559	37	46	
7	0	0	0	0	507	524	0	560	37	46	
8	0	0	0	0	499	525	0	564	37	46	
9	0	0	0	0	502	526	0	559	37	46	
10	0	0	0	0	510	526	0	554	37	46	
11	0	0	0	0	508	526	0	550	37	46	
12	0	0	0	0	508	524	0	548	37	46	
13	0	0	0	0	500	523	0	545	37	46	
14	0	0	0	0	513	520	0	545	37	46	
15	0	0	0	0	502	519	0	555	37	46	
0	0	0	0	0	507	517	0	552	37	46	
1	0	0	0	0	500	514	0	548	37	46	
2	0	0	0	0	512	512	0	544	37	46	
3	0	0	0	0	505	510	0	542	37	46	
4	0	0	0	0	501	508	0	537	37	46	
5	0	0	0	0	510	507	0	536	37	46	
6	0	0	0	0	505	507	0	527	37	46	
7	0	0	0	0	511	507	0	526	37	46	
8	0	0	0	0	508	506	0	538	37	46	
9	0	0	0	0	510	505	0	535	37	46	
10	0	0	0	0	504	505	0	523	37	46	
11	0	0	0	0	502	504	0	509	37	46	
12	0	0	0	0	504	504	0	499	37	46	
13	0	0	0	0	509	503	0	490	37	46	
14	0	0	0	0	505	503	0	481	37	46	
15	0	0	0	0	504	502	0	473	37	46	
0	0	0	0	0	520	503	0	468	37	46	
1	0	0	0	0	521	504	0	469	37	46	
2	0	0	0	0	501	505	0	472	37	46	
3	0	0	0	0	491	505	0	476	37	46	
4	0	0	0	0	495	507	0	478	37	46	
5	0	0	0	0	485	505	0	481	37	46	
6	0	0	0	0	492	504	0	480	37	46	
7	0	0	0	0	499	501	0	476	37	46	
8	0	0	0	0	492	499	0	477	37	46	
9	0	0	0	0	503	496	0	479	37	46	
10	0	0	0	0	505	494	0	480	37	46	
11	0	0	0	0	516	490	0	484	37	46	
12	0	0	0	0	518	487	0	487	37	46	
13	0	0	0	0	520	483	0	487	37	45	
14	0	0	0	0	521	481	0	484	37	45	
15	0	0	0	0	526	480	0	479	37	45	
0	0	0	0	0	519	480	0	488	37	45	
1	0	0	0	0	519	481	0	512	37	45	
2	0	0	0	0	509	482	0	524	37	45	
3	0	0	0	0	508	484	0	543	37	45	
4	0	0	0	0	507	487	0	551	37	45	
5	0	0	0	0	503	490	0	571	37	45	
6	0	0	0	0	493	492	0	563	37	45	
7	0	0	0	0	489	495	0	556	37	45	
8	0	0	0	0	486	497	0	561	37	45	
9	0	0	0	0	489	498	0	562	37	45	
10	0	0	0	0	488	498	0	556	37	45	
11	0	0	0	0	477	497	0	551	37	45	
12	0	0	0	0	495	495	0	548	37	45	
13	0	0	0	0	506	494	0	547	37	45	
14	0	0	0	0	504	491	0	552	37	45	
15	0	0	0	0	507	487	0	555	37	45	
0	0	0	0	0	528	484	0	550	37	45	
1	0	0	0	0	525	482	0	560	37	45	
2	0	0	0	0	519	480	0	557	37	45	
3	0	0	0	0	521	480	0	551	37	45	
4	0	0	0	0	521	480	0	550	37	45	
5	0	0	0	0	523	481	0	555	37	45	
6	0	0	0	0	516	483	0	548	37	45	
7	0	0	0	0	505	485	0	560	37	45	
8	0	0	0	0	504	488	0	543	37	45	
9	0	0	0	0	500	491	0	540	37	45	
10	0	0	0	0	495	494	0	539	37	45	
11	0	0	0	0	483	496	0	537	37	45	
12	0	0	0	0	494	498	0	527	37	45	
13	0	0	0	0	484	499	0	516	37	45	
14	0	0	0	0	496	499	0	508	37	45	
15	0	0	0	0	490	498	0	500	37	45	
0	0	0	0	0	493	496	0	494	37	45	
1	0	0	0	0	501	494	0	500	37	45	
2	0	0	0	0	508	491	0	489	37	45	
3	0	0	0	0	512	488	0	487	37	45	
4	0	0	0	0	519	485	0	499	37	45	
5	0	0	0	0	521	483	0	483	37	45	
6	0	0	0	0	515	482	0	480	37	45	
7	0	0	0	0	528	481	0	477	37	45	
8	0	0	0	0	520	481	0	475	37	45	
9	0	0	0	0	524	482	0	478	37	45	
10	0	0	0	0	514	483	0	481	37	45	
11	0	0	0	0	521	486	0	483	37	45	
12	0	0	0	0	508	489	0	484	37	45	
13	0	0	0	0	504	493	0	485	37	45	
14	0	0	0	0	487	496	0	486	37	45	
15	0	0	0	0	486	499	0	484	37	45	
0	0	0	0	0	487	502	0	484	37	45	
1	0	0	0	0	483	503	0	485	37	45	
2	0	0	0	0	489	503	0	487	37	45	
3	0	0	0	0	496	503	0	491	37	45	
4	0	0	0	0	497	501	0	507	37	45	
5	0	0	0	0	503	499	0	493	37	45	
6	0	0	0	0	502	496	0	508	37	45	
7	0	0	0	0	514	493	0	524	37	45	
8	0	0	0	0	519	490	0	532	37	45	
9	0	0	0	0	520	487	0	552	37	45	
10	0	0	0	0	521	486	0	558	37	45	
11	0	0	0	0	527	487	0	565	37	45	
12	0	0	0	0	527	487	0	573	37	45	
13	0	0	0	0	518	490	0	569	37	45	
14	0	0	0	0	510	494	0	575	37	45	
15	0	0	0	0	511	498	0	567	37	45	
0	0	0	0	0	507	502	0	567	37	45	
1	0	0	0	0	505	507	0	568	37	45	
2	0	0	0	0	501	509	0	563	37	45	
3	0	0	0	0	488	512	0	557	37	45	
4	0	0	0	0	491	513	0	552	37	45	
5	0	0	0	0	486	512	0	550	37	45	
6	0	0	0	0	487	510	0	551	37	45	
7	0	0	0	0	491	506	0	560	37	45	
8	0	0	0	0	500	500	0	556	37	45	
9	0	0	0	0	507	493	0	552	37	45	
10	0	0	0	0	504	484	0	549	37	45	
11	0	0	0	0	500	474	0	547	37	45	
12	0	0	0	0	519	464	0	545	37	45	
13	0	0	0	0	522	454	0	540	37	45	
14	0	0	0	0	518	444	0	531	37	45	
15	0	0	0	0	519	436	0	536	37	45	
0	0	0	0	0	520	430	0	542	37	45	
1	0	0	0	0	506	425	0	536	37	45	
2	0	0	0	0	511	422	0	527	37	45	
3	0	0	0	0	503	420	0	515	37	45	
4	0	0	0	0	502	418	0	504	37	45	
5	0	0	0	0	498	418	0	496	37	45	
6	0	0	0	0	506	419	0	488	37	45	
7	0	0	0	0	510	420	0	481	37	45	
8	0	0	0	0	509	422	0	479	37	45	
9	0	0	0	0	503	425	0	480	37	45	
10	0	0	0	0	509	428	0	483	37	45	
11	0	0	0	0	503	431	0	484	37	45	
12	0	0	0	0	499	435	0	488	38	45	
13	0	0	0	0	499	439	0	488	38	45	
14	0	0	0	0	501	441	0	487	38	45	
15	0	0	0	0	509	444	0	484	38	45	
0	0	0	0	0	502	444	0	482	37	45	
1	0	0	0	0	502	445	0	486	37	45	
2	0	0	0	0	509	448	0	488	37	45	
3	0	0	0	0	511	455	0	490	38	45	
4	0	0	0	0	503	465	0	495	37	45	
5	0	0	0	0	510	476	0	496	37	45	
6	0	0	0	0	510	488	0	494	37	45	
7	0	0	0	0	504	500	0	490	38	45	
8	0	0	0	0	507	512	0	507	38	45	
9	0	0	0	0	506	524	0	528	37	45	
10	0	0	0	0	515	536	0	541	37	45	
11	0	0	0	0	504	547	0	561	37	45	
12	0	0	0	0	500	558	0	567	37	45	
13	0	0	0	0	507	568	0	575	37	45	
14	0	0	0	0	508	577	0	580	37	45	
15	0	0	0	0	504	582	0	575	37	45	
0	0	0	0	0	508	585	0	583	37	45	
1	0	0	0	0	512	587	0	581	37	45	
2	0	0	0	0	502	585	0	577	37	45	
3	0	0	0	0	500	584	0	572	37	45	
4	0	0	0	0	504	584	0	569	37	45	
5	0	0	0	0	507	584	0	566	37	45	
6	0	0	0	0	507	583	0	564	37	45	
7	0	0	0	0	512	581	0	552	37	45	
8	0	0	0	0	505	579	0	541	37	45	
9	0	0	0	0	511	578	0	532	37	45	
10	0	0	0	0	502	576	0	524	37	45	
11	0	0	0	0	505	573	0	518	37	45	
12	0	0	0	0	507	571	0	513	37	45	
13	0	0	0	0	507	568	0	511	37	45	
14	0	0	0	0	502	565	0	510	37	45	
15	0	0	0	0	508	561	0	507	37	45	
0	0	0	0	0	513	557	0	504	37	45	
1	0	0	0	0	504	551	0	505	37	45	
2	0	0	0	0	509	546	0	503	37	45	
3	0	0	0	0	506	541	0	505	37	45	
4	0	0	0	0	511	536	0	507	37	45	
5	0	0	0	0	509	531	0	506	37	45	
6	0	0	0	0	509	527	0	502	37	45	
7	0	0	0	0	504	524	0	509	37	45	
8	0	0	0	0	503	523	0	496	37	45	
9	0	0	0	0	503	521	0	496	37	45	
10	0	0	0	0	504	519	0	498	37	45	
11	0	0	0	0	507	518	0	497	37	45	
12	0	0	0	0	509	516	0	497	37	45	
13	0	0	0	0	503	515	0	496	37	45	
14	0	0	0	0	503	513	0	492	37	45	
15	0	0	0	0	516	511	0	486	37	45	
0	0	0	0	0	508	510	0	484	37	45	
1	0	0	0	0	508	508	0	496	37	45	
2	0	0	0	0	505	506	0	519	37	45	
3	0	0	0	0	507	504	0	529	37	45	
4	0	0	0	0	504	503	0	548	37	45	
5	0	0	0	0	503	502	0	556	37	45	
6	0	0	0	0	512	502	0	559	37	45	
7	0	0	0	0	498	500	0	566	37	45	
8	0	0	0	0	501	499	0	559	37	45	
9	0	0	0	0	502	499	0	566	37	45	
10	0	0	0	0	505	499	0	564	37	45	
11	0	0	0	0	511	499	0	562	37	45	
12	0	0	0	0	507	499	0	569	37	45	
13	0	0	0	0	506	500	0	560	37	45	
14	0	0	0	0	501	500	0	564	37	45	
15	0	0	0	0	508	499	0	558	37	45	
0	0	0	0	0	505	500	0	542	37	45	
1	0	0	0	0	506	500	0	525	37	45	
2	0	0	0	0	512	500	0	513	37	45	
3	0	0	0	0	506	500	0	499	37	45	
4	0	0	0	0	505	500	0	492	37	45	
5	0	0	0	0	509	500	0	487	37	45	
6	0	0	0	0	501	499	0	482	37	45	
7	0	0	0	0	505	499	0	478	37	45	
8	0	0	0	0	512	498	0	476	37	45	
9	0	0	0	0	511	497	0	476	37	45	
10	0	0	0	0	507	497	0	477	37	45	
11	0	0	0	0	508	496	0	479	37	45	
12	0	0	0	0	501	496	0	480	37	45	
13	0	0	0	0	505	496	0	478	37	45	
14	0	0	0	0	503	496	0	474	37	45	
15	0	0	0	0	507	496	0	472	37	45	
0	0	0	0	0	503	496	0	472	37	45	
1	0	0	0	0	506	497	0	475	37	45	
2	0	0	0	0	506	497	0	479	37	45	
3	0	0	0	0	508	497	0	483	37	45	
4	0	0	0	0	504	497	0	487	37	45	
5	0	0	0	0	506	497	0	500	37	45	
6	0	0	0	0	505	497	0	493	37	45	
7	0	0	0	0	506	497	0	483	37	45	
8	0	0	0	0	511	498	0	480	37	45	
9	0	0	0	0	512	498	0	480	37	45	
10	0	0	0	0	507	497	0	482	37	45	
11	0	0	0	0	504	497	0	484	37	45	
12	0	0	0	0	514	497	0	484	37	45	
13	0	0	0	0	499	496	0	484	37	45	
14	0	0	0	0	504	496	0	482	37	45	
15	0	0	0	0	510	495	0	478	37	45	
0	0	0	0	0	506	495	0	478	37	45	
1	0	0	0	0	511	495	0	478	37	45	
2	0	0	0	0	511	495	0	480	37	45	
3	0	0	0	0	497	496	0	492	37	45	
4	0	0	0	0	508	496	0	518	37	45	
5	0	0	0	0	505	497	0	527	37	45	
6	0	0	0	0	503	497	0	543	37	45	
7	0	0	0	0	504	498	0	547	37	45	
8	0	0	0	0	503	498	0	547	37	45	
9	0	0	0	0	504	499	0	557	37	45	
10	0	0	0	0	503	498	0	555	37	45	
11	0	0	0	0	503	497	0	564	38	45	
12	0	0	0	0	508	498	0	565	38	45	
13	0	0	0	0	510	498	0	567	38	45	
14	0	0	0	0	504	497	0	571	38	45	
15	0	0	0	0	512	497	0	561	38	45	
0	0	0	0	0	511	496	0	565	38	45	
1	0	0	0	0	506	496	0	565	38	45	
2	0	0	0	0	505	495	0	561	38	45	
3	0	0	0	0	508	495	0	556	38	45	
4	0	0	0	0	504	495	0	550	38	45	
5	0	0	0	0	503	496	0	546	38	45	
6	0	0	0	0	499	496	0	551	38	45	
7	0	0	0	0	502	497	0	553	38	45	
8	0	0	0	0	500	498	0	549	38	45	
9	0	0	0	0	508	499	0	545	38	45	
10	0	0	0	0	510	499	0	543	38	45	
11	0	0	0	0	516	499	0	543	38	45	
12	0	0	0	0	507	500	0	542	38	45	
13	0	0	0	0	505	499	0	538	38	45	
14	0	0	0	0	502	500	0	532	38	45	
15	0	0	0	0	504	500	0	544	38	45	
0	0	0	0	0	502	500	0	548	38	45	
1	0	0	0	0	509	500	0	540	38	45	
2	0	0	0	0	512	499	0	531	38	45	
3	0	0	0	0	513	499	0	521	38	45	
4	0	0	0	0	514	500	0	514	38	45	
5	0	0	0	0	507	500	0	507	38	45	
6	0	0	0	0	501	500	0	501	38	45	
7	0	0	0	0	501	500	0	496	38	45	
8	0	0	0	0	504	500	0	497	38	45	
9	0	0	0	0	507	501	0	495	38	45	
10	0	0	0	0	503	501	0	496	38	45	
11	0	0	0	0	506	502	0	497	38	45	
12	0	0	0	0	473	498	0	498	38	45	
13	0	0	0	0	504	496	0	497	38	45	
14	0	0	0	0	511	494	0	493	38	45	
15	0	0	0	0	525	494	0	488	38	45	
0	0	0	0	0	529	495	0	485	38	45	
1	0	0	0	0	525	497	0	486	38	45	
2	0	0	0	0	518	499	0	490	38	46	
3	0	0	0	0	513	502	0	501	38	46	
4	0	0	0	0	505	504	0	497	38	46	
5	0	0	0	0	506	508	0	498	38	46	
6	0	0	0	0	491	510	0	498	37	46	
7	0	0	0	0	489	513	0	497	38	46	
8	0	0	0	0	486	515	0	519	37	46	
9	0	0	0	0	487	516	0	536	37	46	
10	0	0	0	0	483	515	0	548	37	46	
11	0	0	0	0	492	514	0	565	37	46	
12	0	0	0	0	498	512	0	567	37	46	
13	0	0	0	0	513	509	0	577	37	46	
14	0	0	0	0	511	505	0	576	37	46	
15	0	0	0	0	511	501	0	574	37	46	
0	0	0	0	0	517	498	0	578	37	46	
1	0	0	0	0	520	496	0	572	37	46	
2	0	0	0	0	519	494	0	567	37	46	
3	0	0	0	0	529	492	0	574	37	46	
4	0	0	0	0	522	492	0	560	37	46	
5	0	0	0	0	524	493	0	558	37	46	
6	0	0	0	0	516	494	0	568	38	46	
7	0	0	0	0	510	496	0	564	38	46	
8	0	0	0	0	504	498	0	560	37	46	
9	0	0	0	0	496	502	0	559	37	46	
10	0	0	0	0	494	505	0	556	37	46	
11	0	0	0	0	484	507	0	555	37	46	
12	0	0	0	0	489	508	0	554	37	46	
13	0	0	0	0	478	509	0	545	37	46	
14	0	0	0	0	488	508	0	536	37	46	
15	0	0	0	0	500	507	0	527	37	46	
0	0	0	0	0	496	504	0	518	37	46	
1	0	0	0	0	508	502	0	511	37	46	
2	0	0	0	0	507	498	0	507	37	46	
3	0	0	0	0	508	494	0	504	37	46	
4	0	0	0	0	517	490	0	502	37	46	
5	0	0	0	0	526	487	0	502	37	46	
6	0	0	0	0	528	485	0	499	37	46	
7	0	0	0	0	529	484	0	494	37	46	
8	0	0	0	0	527	484	0	491	37	46	
9	0	0	0	0	524	485	0	494	37	46	
10	0	0	0	0	515	487	0	498	37	46	
11	0	0	0	0	511	489	0	500	37	46	
12	0	0	0	0	508	491	0	502	37	46	
13	0	0	0	0	498	494	0	504	37	46	
14	0	0	0	0	485	496	0	511	37	46	
15	0	0	0	0	492	499	0	501	37	46	
0	0	0	0	0	488	500	0	500	37	46	
1	0	0	0	0	488	501	0	501	37	46	
2	0	0	0	0	489	500	0	503	37	46	
3	0	0	0	0	486	499	0	505	37	46	
4	0	0	0	0	501	496	0	511	38	46	
5	0	0	0	0	497	493	0	534	37	46	
6	0	0	0	0	511	490	0	550	37	46	
7	0	0	0	0	509	486	0	560	38	46	
8	0	0	0	0	512	484	0	575	37	46	
9	0	0	0	0	518	481	0	572	38	46	
10	0	0	0	0	512	480	0	580	37	46	
11	0	0	0	0	528	478	0	580	38	46	
12	0	0	0	0	527	478	0	577	38	46	
13	0	0	0	0	522	478	0	581	38	46	
14	0	0	0	0	513	479	0	570	37	46	
15	0	0	0	0	513	480	0	573	38	46	
0	0	0	0	0	512	481	0	570	37	46	
1	0	0	0	0	507	485	0	565	38	46	
2	0	0	0	0	494	488	0	561	37	46	
3	0	0	0	0	487	491	0	557	37	46	
4	0	0	0	0	487	493	0	553	38	46	
5	0	0	0	0	485	495	0	551	37	46	
6	0	0	0	0	489	495	0	553	38	46	
7	0	0	0	0	488	494	0	564	38	46	
8	0	0	0	0	496	493	0	562	37	46	
9	0	0	0	0	512	491	0	559	37	46	
10	0	0	0	0	513	488	0	556	37	46	
11	0	0	0	0	513	487	0	553	37	46	
12	0	0	0	0	516	485	0	551	37	46	
13	0	0	0	0	511	483	0	545	37	46	
14	0	0	0	0	522	483	0	537	37	46	
15	0	0	0	0	510	481	0	541	37	46	
0	0	0	0	0	509	480	0	548	37	46	
1	0	0	0	0	513	480	0	543	37	46	
2	0	0	0	0	508	479	0	532	37	46	
3	0	0	0	0	503	479	0	522	37	46	
4	0	0	0	0	499	480	0	511	37	46	
5	0	0	0	0	504	480	0	503	37	46	
6	0	0	0	0	512	479	0	492	37	46	
7	0	0	0	0	510	477	0	484	37	46	
8	0	0	0	0	496	476	0	480	37	46	
9	0	0	0	0	501	475	0	480	37	46	
10	0	0	0	0	499	475	0	482	37	46	
11	0	0	0	0	504	477	0	484	37	46	
12	0	0	0	0	505	478	0	487	37	46	
13	0	0	0	0	505	479	0	487	37	46	
14	0	0	0	0	501	478	0	485	37	46	
15	0	0	0	0	508	480	0	481	37	46	
0	0	0	0	0	507	480	0	480	37	46	
1	0	0	0	0	509	481	0	481	37	46	
2	0	0	0	0	503	482	0	483	37	46	
3	0	0	0	0	511	484	0	484	37	46	
4	0	0	0	0	506	487	0	485	37	46	
5	0	0	0	0	504	488	0	485	37	46	
6	0	0	0	0	505	490	0	481	37	46	
7	0	0	0	0	507	490	0	478	37	46	
8	0	0	0	0	505	492	0	494	37	46	
9	0	0	0	0	503	495	0	514	37	46	
10	0	0	0	0	502	496	0	527	37	46	
11	0	0	0	0	505	498	0	548	37	46	
12	0	0	0	0	511	499	0	553	37	46	
13	0	0	0	0	509	499	0	562	37	46	
14	0	0	0	0	513	499	0	565	37	46	
15	0	0	0	0	506	500	0	558	37	46	
0	0	0	0	0	505	501	0	567	37	46	
1	0	0	0	0	505	502	0	563	37	46	
2	0	0	0	0	500	504	0	558	37	46	
3	0	0	0	0	504	505	0	555	37	46	
4	0	0	0	0	508	508	0	548	37	46	
5	0	0	0	0	512	510	0	545	37	46	
6	0	0	0	0	507	512	0	553	37	46	
7	0	0	0	0	502	515	0	551	37	46	
8	0	0	0	0	506	517	0	538	37	46	
9	0	0	0	0	504	518	0	531	37	46	
10	0	0	0	0	502	519	0	541	37	46	
11	0	0	0	0	507	520	0	542	37	46	
12	0	0	0	0	508	521	0	542	37	46	
13	0	0	0	0	511	522	0	544	37	46	
14	0	0	0	0	498	523	0	552	37	46	
15	0	0	0	0	505	524	0	546	37	46	
0	0	0	0	0	504	525	0	542	37	46	
1	0	0	0	0	512	526	0	538	37	46	
2	0	0	0	0	503	527	0	535	37	46	
3	0	0	0	0	504	527	0	532	37	46	
4	0	0	0	0	511	529	0	529	37	46	
5	0	0	0	0	511	530	0	519	37	46	
6	0	0	0	0	507	531	0	506	37	46	
7	0	0	0	0	504	531	0	495	37	46	
8	0	0	0	0	497	532	0	486	37	46	
9	0	0	0	0	504	533	0	483	37	46	
10	0	0	0	0	503	534	0	479	37	46	
11	0	0	0	0	505	535	0	475	37	46	
12	0	0	0	0	507	536	0	472	37	46	
13	0	0	0	0	507	537	0	470	37	46	
14	0	0	0	0	505	537	0	467	37	46	
15	0	0	0	0	502	537	0	460	37	46	
0	0	0	0	0	510	537	0	457	37	46	
1	0	0	0	0	505	538	0	458	37	46	
2	0	0	0	0	507	538	0	460	37	46	
3	0	0	0	0	513	537	0	461	37	46	
4	0	0	0	0	512	537	0	462	37	46	
5	0	0	0	0	510	537	0	460	37	46	
6	0	0	0	0	504	537	0	460	37	46	
7	0	0	0	0	508	536	0	457	37	46	
8	0	0	0	0	508	536	0	459	37	46	
9	0	0	0	0	496	536	0	462	37	46	
10	0	0	0	0	506	536	0	462	37	46	
11	0	0	0	0	504	536	0	464	37	46	
12	0	0	0	0	497	536	0	467	37	46	
13	0	0	0	0	496	536	0	469	37	46	
14	0	0	0	0	507	536	0	468	37	46	
15	0	0	0	0	511	536	0	482	37	46	
0	0	0	0	0	512	535	0	499	37	46	
1	0	0	0	0	519	535	0	510	37	46	
2	0	0	0	0	528	537	0	529	37	46	
3	0	0	0	0	519	539	0	534	37	46	
4	0	0	0	0	514	541	0	542	37	46	
5	0	0	0	0	513	544	0	547	37	46	
6	0	0	0	0	497	547	0	541	37	46	
7	0	0	0	0	483	550	0	546	37	46	
8	0	0	0	0	489	552	0	538	37	46	
9	0	0	0	0	483	552	0	540	37	46	
10	0	0	0	0	484	553	0	543	37	46	
11	0	0	0	0	487	551	0	539	38	46	
12	0	0	0	0	497	549	0	536	38	46	
13	0	0	0	0	496	546	0	543	38	46	
14	0	0	0	0	507	543	0	541	38	46	
15	0	0	0	0	509	539	0	535	38	46	
0	0	0	0	0	518	536	0	527	38	46	
1	0	0	0	0	521	532	0	523	38	46	
2	0	0	0	0	527	530	0	521	38	46	
3	0	0	0	0	530	529	0	521	38	46	
4	0	0	0	0	526	528	0	520	38	46	
5	0	0	0	0	528	529	0	517	38	46	
6	0	0	0	0	511	531	0	508	38	46	
7	0	0	0	0	508	533	0	499	38	46	
8	0	0	0	0	504	536	0	490	38	46	
9	0	0	0	0	507	539	0	483	38	46	
10	0	0	0	0	486	541	0	479	38	46	
11	0	0	0	0	487	543	0	476	38	46	
12	0	0	0	0	496	545	0	475	38	46	
13	0	0	0	0	483	546	0	474	38	46	
14	0	0	0	0	493	546	0	471	38	46	
15	0	0	0	0	492	545	0	467	38	46	
0	0	0	0	0	492	542	0	468	38	46	
1	0	0	0	0	498	539	0	468	38	46	
2	0	0	0	0	506	536	0	468	38	46	
3	0	0	0	0	510	532	0	470	38	46	
4	0	0	0	0	518	529	0	472	38	46	
5	0	0	0	0	521	526	0	472	38	46	
6	0	0	0	0	520	524	0	470	38	46	
7	0	0	0	0	529	523	0	465	38	46	
8	0	0	0	0	524	523	0	465	38	46	
9	0	0	0	0	523	523	0	467	38	46	
10	0	0	0	0	520	524	0	471	38	46	
11	0	0	0	0	513	526	0	474	38	46	
12	0	0	0	0	511	528	0	476	37	46	
13	0	0	0	0	505	531	0	478	37	46	
14	0	0	0	0	487	534	0	480	37	46	
15	0	0	0	0	486	537	0	486	37	46	
0	0	0	0	0	489	539	0	497	37	46	
1	0	0	0	0	487	539	0	512	37	46	
2	0	0	0	0	486	538	0	525	37	46	
3	0	0	0	0	488	536	0	543	37	46	
4	0	0	0	0	496	534	0	544	37	46	
5	0	0	0	0	501	531	0	553	37	46	
6	0	0	0	0	500	527	0	549	37	46	
7	0	0	0	0	514	523	0	543	37	46	
8	0	0	0	0	525	521	0	550	37	46	
9	0	0	0	0	519	518	0	544	37	47	
10	0	0	0	0	528	516	0	548	37	47	
11	0	0	0	0	524	515	0	545	37	47	
12	0	0	0	0	531	515	0	529	37	47	
13	0	0	0	0	527	516	0	513	37	47	
14	0	0	0	0	511	517	0	498	37	47	
15	0	0	0	0	508	519	0	481	37	47	
0	0	0	0	0	507	521	0	469	37	47	
1	0	0	0	0	502	525	0	465	37	47	
2	0	0	0	0	493	527	0	463	37	47	
3	0	0	0	0	487	529	0	464	37	47	
4	0	0	0	0	487	530	0	465	37	47	
5	0	0	0	0	485	530	0	464	37	47	
6	0	0	0	0	486	530	0	461	37	47	
7	0	0	0	0	487	528	0	459	37	47	
8	0	0	0	0	498	527	0	463	37	47	
9	0	0	0	0	504	525	0	464	37	47	
10	0	0	0	0	504	521	0	467	37	47	
11	0	0	0	0	507	518	0	467	37	47	
12	0	0	0	0	519	515	0	470	37	47	
13	0	0	0	0	524	513	0	470	37	47	
14	0	0	0	0	527	512	0	467	37	47	
15	0	0	0	0	525	510	0	462	37	47	
0	0	0	0	0	521	510	0	462	37	47	
1	0	0	0	0	523	511	0	463	37	47	
2	0	0	0	0	519	512	0	464	37	47	
3	0	0	0	0	516	514	0	467	37	47	
4	0	0	0	0	502	516	0	467	37	47	
5	0	0	0	0	503	520	0	469	37	47	
6	0	0	0	0	488	523	0	468	37	47	
7	0	0	0	0	489	525	0	463	37	47	
8	0	0	0	0	488	527	0	464	37	47	
9	0	0	0	0	480	526	0	465	37	47	
10	0	0	0	0	484	526	0	466	37	47	
11	0	0	0	0	495	526	0	467	37	47	
12	0	0	0	0	495	524	0	468	37	47	
13	0	0	0	0	505	522	0	472	37	47	
14	0	0	0	0	507	519	0	467	37	47	
15	0	0	0	0	505	516	0	477	37	47	
0	0	0	0	0	525	513	0	498	37	47	
1	0	0	0	0	519	511	0	506	37	47	
2	0	0	0	0	519	509	0	526	37	47	
3	0	0	0	0	532	509	0	535	37	47	
4	0	0	0	0	522	509	0	540	37	47	
5	0	0	0	0	518	510	0	550	37	46	
6	0	0	0	0	508	512	0	544	37	46	
7	0	0	0	0	506	513	0	550	37	46	
8	0	0	0	0	512	516	0	550	37	46	
9	0	0	0	0	504	519	0	548	37	46	
10	0	0	0	0	489	521	0	556	37	46	
11	0	0	0	0	490	523	0	551	37	46	
12	0	0	0	0	495	525	0	560	37	46	
13	0	0	0	0	492	525	0	559	37	46	
14	0	0	0	0	489	525	0	547	37	46	
15	0	0	0	0	486	525	0	551	37	46	
0	0	0	0	0	497	523	0	545	37	46	
1	0	0	0	0	502	521	0	551	37	46	
2	0	0	0	0	507	518	0	550	37	46	
3	0	0	0	0	509	514	0	548	37	46	
4	0	0	0	0	521	511	0	553	37	46	
5	0	0	0	0	518	509	0	545	37	46	
6	0	0	0	0	522	507	0	549	37	46	
7	0	0	0	0	524	506	0	545	37	46	
8	0	0	0	0	525	506	0	539	37	46	
9	0	0	0	0	527	507	0	534	37	46	
10	0	0	0	0	511	509	0	530	37	46	
11	0	0	0	0	510	510	0	528	37	46	
12	0	0	0	0	509	513	0	528	37	46	
13	0	0	0	0	505	516	0	520	37	46	
14	0	0	0	0	487	519	0	511	37	46	
15	0	0	0	0	490	521	0	501	37	46	
0	0	0	0	0	482	523	0	492	37	46	
1	0	0	0	0	483	523	0	486	37	46	
2	0	0	0	0	489	523	0	481	37	46	
3	0	0	0	0	494	522	0	477	37	46	
4	0	0	0	0	499	520	0	475	37	46	
5	0	0	0	0	505	518	0	473	37	46	
6	0	0	0	0	510	515	0	469	37	46	
7	0	0	0	0	503	513	0	465	37	46	
8	0	0	0	0	519	510	0	463	37	46	
9	0	0	0	0	523	509	0	465	37	46	
10	0	0	0	0	522	506	0	467	37	46	
11	0	0	0	0	523	506	0	468	37	46	
12	0	0	0	0	524	505	0	471	37	46	
13	0	0	0	0	519	505	0	472	37	46	
14	0	0	0	0	522	507	0	470	37	46	
15	0	0	0	0	507	508	0	466	37	46	
0	0	0	0	0	509	511	0	465	37	46	
1	0	0	0	0	496	514	0	466	37	46	
2	0	0	0	0	484	516	0	468	37	46	
3	0	0	0	0	490	518	0	471	37	46	
4	0	0	0	0	494	520	0	472	37	46	
5	0	0	0	0	482	519	0	472	37	46	
6	0	0	0	0	485	519	0	472	37	46	
7	0	0	0	0	496	519	0	475	37	46	
8	0	0	0	0	492	518	0	499	37	46	
9	0	0	0	0	501	516	0	510	37	46	
10	0	0	0	0	504	513	0	526	37	46	
11	0	0	0	0	504	509	0	538	37	46	
12	0	0	0	0	515	505	0	539	37	46	
13	0	0	0	0	525	503	0	550	37	46	
14	0	0	0	0	519	501	0	543	37	46	
15	0	0	0	0	529	501	0	545	37	46	
0	0	0	0	0	526	502	0	550	37	46	
1	0	0	0	0	520	503	0	548	37	46	
2	0	0	0	0	521	505	0	556	37	46	
3	0	0	0	0	512	508	0	554	37	46	
4	0	0	0	0	505	511	0	553	37	46	
5	0	0	0	0	500	515	0	554	37	46	
6	0	0	0	0	486	518	0	546	37	46	
7	0	0	0	0	495	520	0	540	37	46	
8	0	0	0	0	494	522	0	543	37	46	
9	0	0	0	0	486	523	0	547	37	46	
10	0	0	0	0	489	523	0	551	37	46	
11	0	0	0	0	491	522	0	556	37	46	
12	0	0	0	0	502	521	0	562	37	46	
13	0	0	0	0	497	520	0	566	37	46	
14	0	0	0	0	497	518	0	553	37	46	
15	0	0	0	0	505	515	0	536	37	46	
0	0	0	0	0	511	513	0	543	37	46	
1	0	0	0	0	524	511	0	537	37	46	
2	0	0	0	0	527	509	0	545	37	46	
3	0	0	0	0	531	508	0	546	37	46	
4	0	0	0	0	520	508	0	544	37	46	
5	0	0	0	0	521	510	0	550	37	46	
6	0	0	0	0	519	511	0	541	37	46	
7	0	0	0	0	517	513	0	534	37	46	
8	0	0	0	0	504	515	0	529	37	46	
9	0	0	0	0	497	519	0	527	37	46	
10	0	0	0	0	491	521	0	526	37	46	
11	0	0	0	0	487	523	0	524	37	46	
12	0	0	0	0	492	525	0	515	37	46	
13	0	0	0	0	492	525	0	505	37	46	
14	0	0	0	0	491	525	0	496	37	46	
15	0	0	0	0	489	523	0	489	37	46	
0	0	0	0	0	491	519	0	483	37	46	
1	0	0	0	0	499	517	0	479	37	46	
2	0	0	0	0	503	512	0	475	37	46	
3	0	0	0	0	507	508	0	474	37	46	
4	0	0	0	0	515	504	0	474	37	46	
5	0	0	0	0	523	501	0	475	37	46	
6	0	0	0	0	523	499	0	473	37	46	
7	0	0	0	0	537	497	0	468	37	46	
8	0	0	0	0	524	498	0	473	37	46	
9	0	0	0	0	523	499	0	471	37	46	
10	0	0	0	0	511	500	0	474	37	46	
11	0	0	0	0	513	503	0	476	37	46	
12	0	0	0	0	510	504	0	478	37	46	
13	0	0	0	0	501	506	0	478	37	46	
14	0	0	0	0	492	508	0	477	37	46	
15	0	0	0	0	484	510	0	474	37	46	
0	0	0	0	0	491	512	0	474	37	46	
1	0	0	0	0	480	512	0	475	37	46	
2	0	0	0	0	483	511	0	477	37	46	
3	0	0	0	0	492	510	0	480	37	46	
4	0	0	0	0	497	508	0	483	37	46	
5	0	0	0	0	505	505	0	485	37	46	
6	0	0	0	0	506	502	0	501	37	46	
7	0	0	0	0	511	497	0	517	38	46	
8	0	0	0	0	519	494	0	539	38	46	
9	0	0	0	0	520	492	0	545	38	46	
10	0	0	0	0	527	491	0	550	38	46	
11	0	0	0	0	524	491	0	566	38	46	
12	0	0	0	0	527	491	0	563	38	46	
13	0	0	0	0	521	493	0	560	38	46	
14	0	0	0	0	511	494	0	566	38	46	
15	0	0	0	0	500	496	0	556	38	46	
0	0	0	0	0	507	500	0	555	38	46	
1	0	0	0	0	511	504	0	558	38	46	
2	0	0	0	0	488	506	0	552	38	46	
3	0	0	0	0	486	508	0	546	38	46	
4	0	0	0	0	492	511	0	543	37	46	
5	0	0	0	0	492	512	0	541	38	46	
6	0	0	0	0	486	512	0	542	37	46	
7	0	0	0	0	492	511	0	550	38	46	
8	0	0	0	0	505	510	0	547	37	46	
9	0	0	0	0	496	508	0	544	37	46	
10	0	0	0	0	504	504	0	540	37	46	
11	0	0	0	0	505	501	0	537	37	46	
12	0	0	0	0	518	498	0	534	37	46	
13	0	0	0	0	518	496	0	528	37	46	
14	0	0	0	0	518	494	0	517	37	46	
15	0	0	0	0	529	493	0	520	37	46	
0	0	0	0	0	528	494	0	529	37	46	
1	0	0	0	0	528	495	0	524	37	46	
2	0	0	0	0	515	496	0	524	37	46	
3	0	0	0	0	503	499	0	503	37	46	
4	0	0	0	0	508	502	0	491	37	46	
5	0	0	0	0	504	505	0	483	37	46	
6	0	0	0	0	491	509	0	475	37	46	
7	0	0	0	0	487	511	0	467	37	47	
8	0	0	0	0	485	513	0	466	37	47	
9	0	0	0	0	487	513	0	470	37	46	
10	0	0	0	0	489	513	0	466	37	47	
11	0	0	0	0	496	512	0	467	37	47	
12	0	0	0	0	493	510	0	470	37	47	
13	0	0	0	0	500	508	0	471	37	47	
14	0	0	0	0	503	504	0	468	37	47	
15	0	0	0	0	509	500	0	465	37	47	
0	0	0	0	0	519	497	0	464	37	47	
1	0	0	0	0	526	495	0	465	37	47	
2	0	0	0	0	524	493	0	468	37	47	
3	0	0	0	0	528	492	0	469	37	47	
4	0	0	0	0	527	493	0	471	37	47	
5	0	0	0	0	520	493	0	472	37	47	
6	0	0	0	0	509	494	0	471	37	47	
7	0	0	0	0	507	496	0	467	37	47	
8	0	0	0	0	503	499	0	483	37	47	
9	0	0	0	0	503	502	0	503	37	47	
10	0	0	0	0	496	504	0	514	37	47	
11	0	0	0	0	483	507	0	535	37	47	
12	0	0	0	0	488	509	0	541	37	47	
13	0	0	0	0	488	510	0	548	37	47	
14	0	0	0	0	491	511	0	551	37	47	
15	0	0	0	0	497	510	0	544	37	47	
0	0	0	0	0	491	508	0	553	37	47	
1	0	0	0	0	499	506	0	550	37	47	
2	0	0	0	0	503	503	0	553	37	47	
3	0	0	0	0	513	500	0	558	37	47	
4	0	0	0	0	520	497	0	554	37	47	
5	0	0	0	0	513	494	0	560	37	47	
6	0	0	0	0	532	492	0	551	37	47	
7	0	0	0	0	529	492	0	543	37	47	
8	0	0	0	0	519	492	0	538	37	47	
9	0	0	0	0	525	493	0	536	37	47	
10	0	0	0	0	515	495	0	534	37	47	
11	0	0	0	0	514	497	0	531	37	47	
12	0	0	0	0	504	500	0	522	37	47	
13	0	0	0	0	502	504	0	511	37	47	
14	0	0	0	0	488	507	0	501	37	47	
15	0	0	0	0	488	510	0	493	37	46	
0	0	0	0	0	487	513	0	487	37	46	
1	0	0	0	0	486	516	0	483	37	46	
2	0	0	0	0	488	517	0	483	37	46	
3	0	0	0	0	496	516	0	482	37	46	
4	0	0	0	0	501	515	0	483	37	46	
5	0	0	0	0	500	512	0	495	37	46	
6	0	0	0	0	508	507	0	476	37	46	
7	0	0	0	0	510	501	0	472	37	46	
8	0	0	0	0	523	496	0	470	37	46	
9	0	0	0	0	521	491	0	471	37	46	
10	0	0	0	0	515	484	0	473	37	46	
11	0	0	0	0	524	478	0	475	37	46	
12	0	0	0	0	523	472	0	478	37	46	
13	0	0	0	0	518	464	0	479	37	46	
14	0	0	0	0	506	455	0	477	37	46	
15	0	0	0	0	513	448	0	475	38	46	
0	0	0	0	0	507	442	0	475	38	46	
1	0	0	0	0	508	439	0	477	38	46	
2	0	0	0	0	492	436	0	480	38	46	
3	0	0	0	0	490	436	0	483	38	46	
4	0	0	0	0	489	436	0	485	38	46	
5	0	0	0	0	487	435	0	484	38	46	
6	0	0	0	0	489	435	0	495	38	46	
7	0	0	0	0	492	435	0	515	38	46	
8	0	0	0	0	496	435	0	523	38	46	
9	0	0	0	0	495	436	0	540	38	46	
10	0	0	0	0	502	436	0	550	38	46	
11	0	0	0	0	508	437	0	554	38	46	
12	0	0	0	0	522	438	0	563	38	45	
13	0	0	0	0	522	439	0	559	38	45	
14	0	0	0	0	529	440	0	563	38	45	
15	0	0	0	0	524	444	0	559	38	45	
0	0	0	0	0	520	446	0	553	38	45	
1	0	0	0	0	521	448	0	559	38	45	
2	0	0	0	0	512	448	0	551	37	45	
3	0	0	0	0	509	449	0	545	37	45	
4	0	0	0	0	517	454	0	540	37	45	
5	0	0	0	0	502	463	0	537	37	45	
6	0	0	0	0	491	475	0	537	37	45	
7	0	0	0	0	492	488	0	546	37	45	
8	0	0	0	0	493	501	0	544	37	45	
9	0	0	0	0	483	512	0	550	37	45	
10	0	0	0	0	483	524	0	559	37	45	
11	0	0	0	0	497	536	0	555	37	45	
12	0	0	0	0	498	547	0	551	37	45	
13	0	0	0	0	496	557	0	558	37	45	
14	0	0	0	0	500	567	0	554	37	45	
15	0	0	0	0	506	574	0	545	37	45	
0	0	0	0	0	522	580	0	542	37	45	
1	0	0	0	0	527	583	0	539	37	45	
2	0	0	0	0	516	585	0	538	37	45	
3	0	0	0	0	530	586	0	537	37	45	
4	0	0	0	0	525	586	0	536	37	45	
5	0	0	0	0	518	584	0	529	37	45	
6	0	0	0	0	518	581	0	521	37	45	
7	0	0	0	0	508	579	0	529	37	45	
8	0	0	0	0	505	577	0	532	37	44	
9	0	0	0	0	500	578	0	523	37	44	
10	0	0	0	0	494	577	0	510	37	44	
11	0	0	0	0	488	575	0	499	37	44	
12	0	0	0	0	485	574	0	490	37	44	
13	0	0	0	0	489	571	0	484	37	44	
14	0	0	0	0	495	568	0	478	37	44	
15	0	0	0	0	492	563	0	474	37	44	
0	0	0	0	0	491	558	0	472	37	44	
1	0	0	0	0	499	553	0	472	37	44	
2	0	0	0	0	507	547	0	473	37	44	
3	0	0	0	0	510	541	0	485	37	44	
4	0	0	0	0	515	535	0	480	37	44	
5	0	0	0	0	520	527	0	480	37	44	
6	0	0	0	0	526	519	0	478	37	44	
7	0	0	0	0	530	513	0	475	37	44	
8	0	0	0	0	528	507	0	473	37	44	
9	0	0	0	0	524	504	0	473	37	44	
10	0	0	0	0	511	501	0	475	37	44	
11	0	0	0	0	509	499	0	475	37	44	
12	0	0	0	0	504	499	0	475	37	44	
13	0	0	0	0	505	500	0	475	37	44	
14	0	0	0	0	499	501	0	475	37	44	
15	0	0	0	0	493	502	0	473	37	44	
0	0	0	0	0	483	502	0	472	37	44	
1	0	0	0	0	485	502	0	471	37	44	
2	0	0	0	0	492	501	0	471	36	44	
3	0	0	0	0	487	499	0	473	36	44	
4	0	0	0	0	494	497	0	475	37	44	
5	0	0	0	0	499	494	0	474	36	44	
6	0	0	0	0	505	490	0	472	37	44	
7	0	0	0	0	501	486	0	471	37	44	
8	0	0	0	0	524	482	0	464	37	44	
9	0	0	0	0	525	479	0	466	37	44	
10	0	0	0	0	521	476	0	469	37	44	
11	0	0	0	0	527	475	0	470	37	44	
12	0	0	0	0	521	475	0	472	37	44	
13	0	0	0	0	517	475	0	473	37	44	
14	0	0	0	0	517	475	0	471	37	44	
15	0	0	0	0	513	477	0	467	37	44	
0	0	0	0	0	505	479	0	466	37	44	
1	0	0	0	0	510	482	0	467	37	44	
2	0	0	0	0	491	484	0	471	37	44	
3	0	0	0	0	490	487	0	474	37	44	
4	0	0	0	0	488	489	0	480	37	44	
5	0	0	0	0	476	490	0	479	37	44	
6	0	0	0	0	494	491	0	478	37	44	
7	0	0	0	0	499	490	0	475	37	44	
8	0	0	0	0	499	489	0	479	37	44	
9	0	0	0	0	496	487	0	501	37	44	
10	0	0	0	0	504	485	0	516	37	44	
11	0	0	0	0	504	482	0	535	37	44	
12	0	0	0	0	517	480	0	544	37	44	
13	0	0	0	0	517	478	0	543	37	44	
14	0	0	0	0	522	476	0	552	37	44	
15	0	0	0	0	524	475	0	552	37	44	
0	0	0	0	0	527	476	0	551	37	44	
1	0	0	0	0	519	477	0	558	37	44	
2	0	0	0	0	513	478	0	551	37	44	
3	0	0	0	0	511	480	0	556	37	44	
4	0	0	0	0	509	483	0	553	37	44	
5	0	0	0	0	508	486	0	551	37	44	
6	0	0	0	0	489	488	0	556	37	44	
7	0	0	0	0	498	492	0	546	37	44	
8	0	0	0	0	489	494	0	549	37	44	
9	0	0	0	0	487	495	0	548	37	44	
10	0	0	0	0	494	495	0	545	37	44	
11	0	0	0	0	498	494	0	554	37	44	
12	0	0	0	0	496	494	0	550	37	44	
13	0	0	0	0	499	492	0	553	37	44	
14	0	0	0	0	500	490	0	548	37	44	
15	0	0	0	0	503	487	0	544	37	44	
0	0	0	0	0	521	484	0	547	37	44	
1	0	0	0	0	520	483	0	542	37	44	
2	0	0	0	0	517	480	0	539	37	44	
3	0	0	0	0	525	480	0	536	37	44	
4	0	0	0	0	522	480	0	534	37	45	
5	0	0	0	0	520	481	0	533	37	45	
6	0	0	0	0	512	483	0	544	37	45	
7	0	0	0	0	507	486	0	539	37	45	
8	0	0	0	0	500	488	0	535	37	45	
9	0	0	0	0	500	492	0	532	37	45	
10	0	0	0	0	489	495	0	532	37	45	
11	0	0	0	0	487	497	0	531	37	45	
12	0	0	0	0	496	500	0	531	37	45	
13	0	0	0	0	489	501	0	528	37	45	
14	0	0	0	0	496	502	0	513	37	45	
15	0	0	0	0	496	501	0	512	37	45	
0	0	0	0	0	500	500	0	508	37	45	
1	0	0	0	0	500	499	0	491	37	45	
2	0	0	0	0	503	496	0	487	37	45	
3	0	0	0	0	503	494	0	487	37	45	
4	0	0	0	0	521	491	0	485	37	45	
5	0	0	0	0	521	489	0	486	37	45	
6	0	0	0	0	527	487	0	482	37	45	
7	0	0	0	0	531	486	0	479	38	45	
8	0	0	0	0	519	487	0	479	37	45	
9	0	0	0	0	527	487	0	490	37	45	
10	0	0	0	0	515	489	0	478	38	45	
11	0	0	0	0	508	491	0	480	37	45	
12	0	0	0	0	504	493	0	483	38	45	
13	0	0	0	0	501	497	0	485	37	45	
14	0	0	0	0	488	499	0	484	37	45	
15	0	0	0	0	484	502	0	482	38	45	
0	0	0	0	0	487	503	0	481	38	45	
1	0	0	0	0	489	504	0	482	37	46	
2	0	0	0	0	495	504	0	484	37	46	
3	0	0	0	0	488	504	0	485	38	46	
4	0	0	0	0	500	502	0	487	37	46	
5	0	0	0	0	507	500	0	489	37	46	
6	0	0	0	0	502	497	0	487	37	46	
7	0	0	0	0	506	494	0	498	37	46	
8	0	0	0	0	524	492	0	521	37	46	
9	0	0	0	0	527	489	0	533	37	46	
10	0	0	0	0	519	487	0	553	37	46	
11	0	0	0	0	529	486	0	561	37	46	
12	0	0	0	0	519	486	0	564	37	46	
13	0	0	0	0	522	487	0	572	37	46	
14	0	0	0	0	519	487	0	566	37	46	
15	0	0	0	0	502	489	0	568	37	46	
0	0	0	0	0	501	492	0	565	37	46	
1	0	0	0	0	502	495	0	563	37	46	
2	0	0	0	0	499	497	0	568	37	46	
3	0	0	0	0	487	500	0	560	37	46	
4	0	0	0	0	493	502	0	545	37	46	
5	0	0	0	0	486	503	0	546	37	46	
6	0	0	0	0	489	502	0	548	37	46	
7	0	0	0	0	491	500	0	544	37	46	
8	0	0	0	0	496	498	0	556	37	46	
9	0	0	0	0	503	495	0	555	37	46	
10	0	0	0	0	507	492	0	561	37	46	
11	0	0	0	0	510	489	0	564	37	46	
12	0	0	0	0	516	487	0	561	37	46	
13	0	0	0	0	521	484	0	566	37	46	
14	0	0	0	0	518	482	0	557	37	46	
15	0	0	0	0	522	482	0	555	37	46	
0	0	0	0	0	522	482	0	555	37	46	
1	0	0	0	0	527	483	0	550	37	46	
2	0	0	0	0	519	484	0	559	37	46	
3	0	0	0	0	506	486	0	556	37	46	
4	0	0	0	0	504	488	0	558	37	46	
5	0	0	0	0	505	492	0	560	37	46	
6	0	0	0	0	492	494	0	552	37	46	
7	0	0	0	0	489	496	0	555	37	46	
8	0	0	0	0	493	499	0	549	37	46	
9	0	0	0	0	492	499	0	553	37	46	
10	0	0	0	0	490	499	0	557	38	46	
11	0	0	0	0	494	497	0	553	37	46	
12	0	0	0	0	495	496	0	548	37	46	
13	0	0	0	0	495	493	0	555	37	46	
14	0	0	0	0	513	490	0	557	37	46	
15	0	0	0	0	503	487	0	547	37	46	
0	0	0	0	0	518	484	0	543	37	46	
1	0	0	0	0	519	482	0	540	37	46	
2	0	0	0	0	524	480	0	539	37	46	
3	0	0	0	0	524	479	0	539	37	46	
4	0	0	0	0	523	480	0	530	37	46	
5	0	0	0	0	517	480	0	519	37	46	
6	0	0	0	0	516	481	0	509	37	46	
7	0	0	0	0	510	483	0	500	37	46	
8	0	0	0	0	510	485	0	494	37	46	
9	0	0	0	0	504	488	0	488	37	46	
10	0	0	0	0	496	490	0	486	37	46	
11	0	0	0	0	487	492	0	485	37	46	
12	0	0	0	0	490	495	0	484	37	46	
13	0	0	0	0	487	494	0	483	37	46	
14	0	0	0	0	483	495	0	480	37	46	
15	0	0	0	0	489	494	0	476	37	46	
0	0	0	0	0	497	492	0	476	37	46	
1	0	0	0	0	508	491	0	478	37	46	
2	0	0	0	0	512	488	0	480	37	46	
3	0	0	0	0	507	485	0	480	37	46	
4	0	0	0	0	518	483	0	482	37	46	
5	0	0	0	0	520	481	0	483	37	46	
6	0	0	0	0	521	479	0	480	37	46	
7	0	0	0	0	525	478	0	486	37	46	
8	0	0	0	0	518	478	0	475	37	46	
9	0	0	0	0	518	479	0	477	37	46	
10	0	0	0	0	511	480	0	479	37	46	
11	0	0	0	0	511	482	0	482	37	46	
12	0	0	0	0	509	485	0	484	37	46	
13	0	0	0	0	508	488	0	481	37	46	
14	0	0	0	0	497	491	0	486	37	46	
15	0	0	0	0	487	493	0	505	37	46	
0	0	0	0	0	484	495	0	513	37	46	
1	0	0	0	0	481	495	0	527	37	46	
2	0	0	0	0	495	495	0	539	37	46	
3	0	0	0	0	495	494	0	542	37	46	
4	0	0	0	0	498	493	0	553	37	46	
5	0	0	0	0	504	492	0	551	37	46	
6	0	0	0	0	503	489	0	552	37	46	
7	0	0	0	0	505	486	0	552	37	46	
8	0	0	0	0	518	483	0	546	37	46	
9	0	0	0	0	524	481	0	555	37	46	
10	0	0	0	0	524	480	0	552	37	46	
11	0	0	0	0	523	478	0	554	37	46	
12	0	0	0	0	522	479	0	558	37	46	
13	0	0	0	0	520	480	0	552	37	46	
14	0	0	0	0	511	482	0	558	37	46	
15	0	0	0	0	508	484	0	550	37	46	
0	0	0	0	0	507	486	0	532	37	46	
1	0	0	0	0	515	489	0	527	37	46	
2	0	0	0	0	489	492	0	539	37	46	
3	0	0	0	0	492	494	0	539	37	46	
4	0	0	0	0	494	496	0	550	37	46	
5	0	0	0	0	493	497	0	553	37	46	
6	0	0	0	0	481	498	0	547	37	46	
7	0	0	0	0	487	498	0	553	37	46	
8	0	0	0	0	500	497	0	549	37	46	
9	0	0	0	0	500	495	0	557	37	46	
10	0	0	0	0	505	492	0	560	37	46	
11	0	0	0	0	510	489	0	556	37	46	
12	0	0	0	0	519	487	0	555	37	46	
13	0	0	0	0	520	485	0	564	37	46	
14	0	0	0	0	513	484	0	559	37	46	
15	0	0	0	0	525	484	0	553	37	46	
0	0	0	0	0	524	485	0	548	37	46	
1	0	0	0	0	526	487	0	545	37	46	
2	0	0	0	0	506	488	0	543	37	46	
3	0	0	0	0	516	491	0	542	37	46	
4	0	0	0	0	509	494	0	533	37	46	
5	0	0	0	0	504	498	0	523	37	46	
6	0	0	0	0	491	502	0	513	37	46	
7	0	0	0	0	493	505	0	504	37	46	
8	0	0	0	0	489	509	0	497	37	46	
9	0	0	0	0	481	511	0	492	37	46	
10	0	0	0	0	492	512	0	489	37	46	
11	0	0	0	0	492	513	0	487	37	46	
12	0	0	0	0	499	513	0	487	37	46	
13	0	0	0	0	505	512	0	485	37	46	
14	0	0	0	0	499	511	0	481	37	46	
15	0	0	0	0	509	510	0	478	37	46	
0	0	0	0	0	522	509	0	477	37	46	
1	0	0	0	0	522	508	0	478	37	46	
2	0	0	0	0	524	508	0	480	37	46	
3	0	0	0	0	523	509	0	481	37	46	
4	0	0	0	0	525	511	0	484	37	46	
5	0	0	0	0	523	513	0	484	37	46	
6	0	0	0	0	515	516	0	481	37	46	
7	0	0	0	0	504	519	0	477	37	46	
8	0	0	0	0	511	524	0	488	37	46	
9	0	0	0	0	500	529	0	485	37	46	
10	0	0	0	0	493	533	0	494	37	46	
11	0	0	0	0	482	537	0	486	37	46	
12	0	0	0	0	484	541	0	487	37	46	
13	0	0	0	0	486	543	0	489	37	46	
14	0	0	0	0	483	544	0	499	37	46	
15	0	0	0	0	498	544	0	519	37	46	
0	0	0	0	0	503	544	0	527	37	46	
1	0	0	0	0	499	543	0	544	37	46	
2	0	0	0	0	510	542	0	554	37	46	
3	0	0	0	0	504	540	0	558	37	46	
4	0	0	0	0	513	537	0	569	37	47	
5	0	0	0	0	519	536	0	564	37	47	
6	0	0	0	0	519	535	0	570	37	47	
7	0	0	0	0	535	534	0	567	37	47	
8	0	0	0	0	518	535	0	562	37	47	
9	0	0	0	0	528	536	0	568	37	47	
10	0	0	0	0	514	539	0	563	37	47	
11	0	0	0	0	511	542	0	557	37	47	
12	0	0	0	0	505	544	0	554	37	47	
13	0	0	0	0	503	548	0	551	37	47	
14	0	0	0	0	493	551	0	550	37	47	
15	0	0	0	0	491	554	0	559	37	47	
0	0	0	0	0	493	557	0	555	37	47	
1	0	0	0	0	488	558	0	560	37	47	
2	0	0	0	0	484	559	0	553	37	47	
3	0	0	0	0	495	559	0	550	37	47	
4	0	0	0	0	499	558	0	547	37	47	
5	0	0	0	0	504	556	0	545	37	47	
6	0	0	0	0	503	552	0	540	37	47	
7	0	0	0	0	509	549	0	536	37	47	
8	0	0	0	0	520	546	0	548	37	47	
9	0	0	0	0	520	543	0	546	37	47	
10	0	0	0	0	527	541	0	535	37	47	
11	0	0	0	0	527	540	0	521	37	47	
12	0	0	0	0	516	540	0	510	37	47	
13	0	0	0	0	521	541	0	501	37	47	
14	0	0	0	0	518	542	0	491	37	47	
15	0	0	0	0	508	544	0	482	37	47	
0	0	0	0	0	507	547	0	478	37	47	
1	0	0	0	0	502	550	0	477	37	47	
2	0	0	0	0	488	553	0	480	37	47	
3	0	0	0	0	490	555	0	480	37	47	
4	0	0	0	0	486	557	0	481	37	47	
5	0	0	0	0	487	557	0	481	37	47	
6	0	0	0	0	490	557	0	480	37	47	
7	0	0	0	0	493	557	0	478	37	47	
8	0	0	0	0	495	555	0	478	37	47	
9	0	0	0	0	501	552	0	480	37	47	
10	0	0	0	0	511	549	0	481	37	47	
11	0	0	0	0	512	545	0	483	37	47	
12	0	0	0	0	523	541	0	484	37	47	
13	0	0	0	0	516	539	0	487	37	47	
14	0	0	0	0	522	536	0	484	37	47	
15	0	0	0	0	528	535	0	480	37	47	
0	0	0	0	0	527	534	0	488	37	47	
1	0	0	0	0	519	535	0	512	37	47	
2	0	0	0	0	517	535	0	522	37	47	
3	0	0	0	0	505	536	0	540	37	47	
4	0	0	0	0	505	537	0	548	37	47	
5	0	0	0	0	505	540	0	553	37	47	
6	0	0	0	0	491	541	0	561	37	47	
7	0	0	0	0	488	543	0	552	37	47	
8	0	0	0	0	486	544	0	556	37	47	
9	0	0	0	0	495	545	0	554	37	47	
10	0	0	0	0	495	544	0	552	37	47	
11	0	0	0	0	492	542	0	559	37	47	
12	0	0	0	0	504	540	0	550	37	47	
13	0	0	0	0	502	537	0	552	37	47	
14	0	0	0	0	499	534	0	548	37	47	
15	0	0	0	0	506	530	0	546	37	47	
0	0	0	0	0	515	527	0	551	37	47	
1	0	0	0	0	519	524	0	547	37	47	
2	0	0	0	0	515	521	0	542	37	47	
3	0	0	0	0	531	519	0	527	37	47	
4	0	0	0	0	515	519	0	516	37	47	
5	0	0	0	0	521	519	0	502	37	47	
6	0	0	0	0	514	520	0	491	37	47	
7	0	0	0	0	514	522	0	480	37	47	
8	0	0	0	0	512	524	0	475	37	47	
9	0	0	0	0	506	526	0	472	37	47	
10	0	0	0	0	489	529	0	473	37	47	
11	0	0	0	0	492	531	0	476	37	47	
12	0	0	0	0	488	532	0	478	37	46	
13	0	0	0	0	480	532	0	479	37	46	
14	0	0	0	0	488	532	0	479	37	46	
15	0	0	0	0	489	531	0	479	37	46	
0	0	0	0	0	495	528	0	481	37	46	
1	0	0	0	0	501	525	0	484	37	46	
2	0	0	0	0	506	521	0	487	37	46	
3	0	0	0	0	510	517	0	490	37	46	
4	0	0	0	0	518	514	0	493	37	46	
5	0	0	0	0	521	511	0	495	37	46	
6	0	0	0	0	526	508	0	504	37	46	
7	0	0	0	0	529	507	0	485	37	46	
8	0	0	0	0	520	507	0	483	37	46	
9	0	0	0	0	516	508	0	484	37	46	
10	0	0	0	0	519	509	0	487	37	46	
11	0	0	0	0	514	511	0	490	37	46	
12	0	0	0	0	506	513	0	492	37	46	
13	0	0	0	0	504	516	0	492	37	46	
14	0	0	0	0	498	518	0	492	37	46	
15	0	0	0	0	491	520	0	489	37	46	
0	0	0	0	0	496	523	0	489	37	46	
1	0	0	0	0	484	523	0	490	37	46	
2	0	0	0	0	491	522	0	492	37	46	
3	0	0	0	0	487	521	0	502	37	46	
4	0	0	0	0	497	519	0	526	37	46	
5	0	0	0	0	499	517	0	536	37	46	
6	0	0	0	0	504	513	0	551	37	46	
7	0	0	0	0	509	509	0	562	37	45	
8	0	0	0	0	524	505	0	563	37	45	
9	0	0	0	0	519	503	0	582	37	45	
10	0	0	0	0	520	501	0	571	37	45	
11	0	0	0	0	527	500	0	574	37	45	
12	0	0	0	0	524	500	0	580	37	45	
13	0	0	0	0	523	500	0	575	37	45	
14	0	0	0	0	512	502	0	577	37	45	
15	0	0	0	0	506	505	0	569	37	45	
0	0	0	0	0	505	508	0	570	37	45	
1	0	0	0	0	506	511	0	571	37	45	
2	0	0	0	0	491	514	0	567	37	45	
3	0	0	0	0	484	517	0	575	37	45	
4	0	0	0	0	490	519	0	571	37	45	
5	0	0	0	0	481	520	0	573	37	45	
6	0	0	0	0	490	520	0	575	37	45	
7	0	0	0	0	492	519	0	566	37	45	
8	0	0	0	0	497	518	0	559	37	45	
9	0	0	0	0	512	515	0	554	37	45	
10	0	0	0	0	504	512	0	551	37	45	
11	0	0	0	0	507	508	0	550	37	45	
12	0	0	0	0	516	505	0	543	37	45	
13	0	0	0	0	517	502	0	533	37	45	
14	0	0	0	0	518	500	0	522	37	45	
15	0	0	0	0	526	499	0	512	37	45	
0	0	0	0	0	518	499	0	503	37	45	
1	0	0	0	0	524	500	0	498	37	45	
2	0	0	0	0	514	501	0	497	37	45	
3	0	0	0	0	511	503	0	495	37	45	
4	0	0	0	0	509	506	0	495	37	45	
5	0	0	0	0	505	509	0	493	38	45	
6	0	0	0	0	495	512	0	492	38	45	
7	0	0	0	0	493	515	0	489	38	45	
8	0	0	0	0	495	518	0	488	38	45	
9	0	0	0	0	490	519	0	488	38	45	
10	0	0	0	0	489	519	0	490	38	45	
11	0	0	0	0	499	519	0	491	38	45	
12	0	0	0	0	495	517	0	493	38	45	
13	0	0	0	0	499	515	0	493	38	45	
14	0	0	0	0	504	511	0	491	38	45	
15	0	0	0	0	510	507	0	487	38	45	
0	0	0	0	0	519	503	0	487	38	45	
1	0	0	0	0	521	501	0	488	38	45	
2	0	0	0	0	518	499	0	490	38	45	
3	0	0	0	0	518	499	0	492	38	45	
4	0	0	0	0	522	499	0	494	38	45	
5	0	0	0	0	525	500	0	496	38	45	
6	0	0	0	0	509	503	0	496	38	45	
7	0	0	0	0	508	505	0	513	38	45	
8	0	0	0	0	506	508	0	525	38	45	
9	0	0	0	0	506	512	0	537	38	45	
10	0	0	0	0	487	515	0	555	38	45	
11	0	0	0	0	493	518	0	558	38	45	
12	0	0	0	0	491	520	0	568	38	45	
13	0	0	0	0	487	521	0	569	38	45	
14	0	0	0	0	494	521	0	568	38	45	
15	0	0	0	0	494	519	0	573	38	45	
0	0	0	0	0	497	519	0	566	38	45	
1	0	0	0	0	504	516	0	572	38	45	
2	0	0	0	0	508	513	0	570	38	45	
3	0	0	0	0	495	509	0	568	38	45	
4	0	0	0	0	516	506	0	574	38	45	
5	0	0	0	0	515	504	0	565	38	45	
6	0	0	0	0	527	502	0	568	38	45	
7	0	0	0	0	530	501	0	563	38	45	
8	0	0	0	0	516	502	0	556	38	45	
9	0	0	0	0	523	503	0	546	38	45	
10	0	0	0	0	514	505	0	535	38	45	
11	0	0	0	0	508	507	0	530	37	45	
12	0	0	0	0	512	510	0	531	37	45	
13	0	0	0	0	505	513	0	526	37	45	
14	0	0	0	0	497	516	0	526	37	45	
15	0	0	0	0	492	519	0	539	37	45	
0	0	0	0	0	496	521	0	540	37	45	
1	0	0	0	0	482	521	0	531	37	45	
2	0	0	0	0	496	522	0	519	37	45	
3	0	0	0	0	496	521	0	509	37	45	
4	0	0	0	0	499	519	0	502	37	45	
5	0	0	0	0	499	516	0	496	37	45	
6	0	0	0	0	504	513	0	489	37	45	
7	0	0	0	0	506	510	0	482	37	45	
8	0	0	0	0	524	507	0	480	37	45	
9	0	0	0	0	518	504	0	482	37	45	
10	0	0	0	0	511	504	0	485	37	45	
11	0	0	0	0	527	503	0	486	37	45	
12	0	0	0	0	527	503	0	489	37	45	
13	0	0	0	0	522	504	0	491	37	45	
14	0	0	0	0	510	505	0	490	37	45	
15	0	0	0	0	510	508	0	486	37	45	
0	0	0	0	0	502	511	0	485	37	45	
1	0	0	0	0	505	514	0	485	37	45	
2	0	0	0	0	498	517	0	487	37	45	
3	0	0	0	0	499	520	0	489	37	45	
4	0	0	0	0	497	522	0	491	37	45	
5	0	0	0	0	483	522	0	489	37	45	
6	0	0	0	0	491	522	0	488	37	45	
7	0	0	0	0	489	521	0	486	37	45	
8	0	0	0	0	499	519	0	485	37	45	
9	0	0	0	0	503	517	0	487	37	45	
10	0	0	0	0	507	513	0	489	37	45	
11	0	0	0	0	509	510	0	491	37	45	
12	0	0	0	0	517	508	0	492	37	45	
13	0	0	0	0	514	506	0	494	37	45	
14	0	0	0	0	518	504	0	492	37	45	
15	0	0	0	0	522	504	0	489	37	45	
0	0	0	0	0	520	506	0	487	37	45	
1	0	0	0	0	522	508	0	493	37	45	
2	0	0	0	0	516	510	0	494	37	45	
3	0	0	0	0	508	512	0	517	37	45	
4	0	0	0	0	502	516	0	534	37	45	
5	0	0	0	0	502	521	0	547	37	45	
6	0	0	0	0	496	525	0	561	37	45	
7	0	0	0	0	490	528	0	559	37	45	
8	0	0	0	0	493	531	0	567	37	45	
9	0	0	0	0	488	532	0	569	37	45	
10	0	0	0	0	494	533	0	569	37	45	
11	0	0	0	0	494	531	0	576	37	45	
12	0	0	0	0	504	531	0	571	37	45	
13	0	0	0	0	504	528	0	574	37	45	
14	0	0	0	0	508	526	0	572	37	45	
15	0	0	0	0	502	522	0	568	37	45	
0	0	0	0	0	519	520	0	575	37	45	
1	0	0	0	0	529	518	0	569	37	45	
2	0	0	0	0	522	517	0	575	37	45	
3	0	0	0	0	522	518	0	573	37	45	
4	0	0	0	0	519	518	0	571	37	45	
5	0	0	0	0	516	519	0	573	37	45	
6	0	0	0	0	512	522	0	564	37	45	
7	0	0	0	0	507	525	0	557	37	45	
8	0	0	0	0	509	529	0	553	37	45	
9	0	0	0	0	508	533	0	551	37	45	
10	0	0	0	0	496	536	0	548	37	45	
11	0	0	0	0	486	540	0	546	37	45	
12	0	0	0	0	492	542	0	537	37	45	
13	0	0	0	0	486	543	0	526	37	45	
14	0	0	0	0	493	544	0	515	37	45	
15	0	0	0	0	495	543	0	507	37	45	
0	0	0	0	0	490	540	0	500	37	45	
1	0	0	0	0	503	537	0	496	37	45	
2	0	0	0	0	500	532	0	494	37	45	
3	0	0	0	0	506	527	0	493	37	45	
4	0	0	0	0	514	523	0	493	37	45	
5	0	0	0	0	520	519	0	493	37	45	
6	0	0	0	0	525	517	0	489	37	45	
7	0	0	0	0	528	515	0	485	38	45	
8	0	0	0	0	518	514	0	483	38	45	
9	0	0	0	0	515	515	0	485	38	45	
10	0	0	0	0	514	517	0	487	38	45	
11	0	0	0	0	517	519	0	489	38	45	
12	0	0	0	0	504	522	0	492	38	45	
13	0	0	0	0	501	525	0	494	38	45	
14	0	0	0	0	495	527	0	494	38	45	
15	0	0	0	0	491	529	0	491	38	45	
0	0	0	0	0	488	530	0	489	38	45	
1	0	0	0	0	493	529	0	489	38	45	
2	0	0	0	0	499	528	0	490	38	45	
3	0	0	0	0	497	526	0	492	38	45	
4	0	0	0	0	496	524	0	494	38	45	
5	0	0	0	0	498	520	0	496	38	45	
6	0	0	0	0	499	516	0	512	38	45	
7	0	0	0	0	502	512	0	527	38	45	
8	0	0	0	0	517	509	0	535	38	45	
9	0	0	0	0	520	505	0	555	38	45	
10	0	0	0	0	523	504	0	559	38	45	
11	0	0	0	0	526	503	0	565	38	45	
12	0	0	0	0	524	503	0	574	38	45	
13	0	0	0	0	518	505	0	574	38	45	
14	0	0	0	0	516	507	0	575	38	45	
15	0	0	0	0	511	510	0	566	38	45	
0	0	0	0	0	503	515	0	565	38	45	
1	0	0	0	0	501	519	0	568	38	45	
2	0	0	0	0	492	522	0	563	38	45	
3	0	0	0	0	494	525	0	560	38	45	
4	0	0	0	0	493	527	0	557	38	45	
5	0	0	0	0	493	527	0	556	38	45	
6	0	0	0	0	495	527	0	559	38	45	
7	0	0	0	0	487	526	0	568	38	45	
8	0	0	0	0	498	524	0	566	38	45	
9	0	0	0	0	508	521	0	562	38	45	
10	0	0	0	0	504	517	0	560	38	45	
11	0	0	0	0	508	513	0	557	38	45	
12	0	0	0	0	514	510	0	557	38	45	
13	0	0	0	0	513	507	0	551	38	45	
14	0	0	0	0	518	505	0	542	38	45	
15	0	0	0	0	530	505	0	546	38	45	
0	0	0	0	0	522	505	0	553	38	45	
1	0	0	0	0	521	506	0	547	38	45	
2	0	0	0	0	509	508	0	536	38	46	
3	0	0	0	0	499	511	0	523	38	46	
4	0	0	0	0	508	514	0	512	38	46	
5	0	0	0	0	507	518	0	503	38	46	
6	0	0	0	0	495	521	0	494	38	46	
7	0	0	0	0	486	524	0	487	38	46	
8	0	0	0	0	492	526	0	484	38	46	
9	0	0	0	0	492	526	0	485	38	46	
10	0	0	0	0	488	526	0	487	38	46	
11	0	0	0	0	499	525	0	490	38	46	
12	0	0	0	0	494	522	0	492	38	46	
13	0	0	0	0	508	520	0	492	38	46	
14	0	0	0	0	508	516	0	488	38	46	
15	0	0	0	0	505	513	0	484	38	46	
0	0	0	0	0	520	509	0	482	38	46	
1	0	0	0	0	516	506	0	484	38	46	
2	0	0	0	0	520	504	0	487	38	46	
3	0	0	0	0	523	503	0	486	38	46	
4	0	0	0	0	517	502	0	487	38	46	
5	0	0	0	0	519	503	0	487	38	46	
6	0	0	0	0	519	505	0	484	38	46	
7	0	0	0	0	507	508	0	480	38	46	
8	0	0	0	0	499	511	0	511	38	46	
9	0	0	0	0	505	515	0	519	38	46	
10	0	0	0	0	494	518	0	536	38	46	
11	0	0	0	0	487	520	0	566	38	46	
12	0	0	0	0	493	522	0	555	38	46	
13	0	0	0	0	488	523	0	563	38	46	
14	0	0	0	0	493	523	0	566	38	46	
15	0	0	0	0	494	522	0	560	38	46	
0	0	0	0	0	498	519	0	573	38	46	
1	0	0	0	0	509	517	0	566	38	46	
2	0	0	0	0	506	514	0	559	37	46	
3	0	0	0	0	512	510	0	554	38	46	
4	0	0	0	0	523	507	0	549	37	46	
5	0	0	0	0	521	504	0	546	37	46	
6	0	0	0	0	519	502	0	556	37	46	
7	0	0	0	0	520	500	0	555	37	46	
8	0	0	0	0	519	501	0	550	37	46	
9	0	0	0	0	519	503	0	547	37	46	
10	0	0	0	0	513	504	0	545	37	46	
11	0	0	0	0	508	506	0	544	37	46	
12	0	0	0	0	501	509	0	545	37	46	
13	0	0	0	0	501	513	0	538	37	46	
14	0	0	0	0	492	516	0	528	37	46	
15	0	0	0	0	489	519	0	531	37	46	
0	0	0	0	0	494	520	0	508	37	46	
1	0	0	0	0	488	521	0	500	37	46	
2	0	0	0	0	496	522	0	496	37	46	
3	0	0	0	0	488	522	0	494	37	46	
4	0	0	0	0	497	521	0	493	37	46	
5	0	0	0	0	498	520	0	492	37	46	
6	0	0	0	0	504	518	0	490	37	46	
7	0	0	0	0	511	514	0	487	37	46	
8	0	0	0	0	520	511	0	494	37	46	
9	0	0	0	0	516	508	0	487	37	46	
10	0	0	0	0	520	504	0	489	37	46	
11	0	0	0	0	532	500	0	490	37	46	
12	0	0	0	0	521	498	0	492	37	46	
13	0	0	0	0	522	495	0	493	37	46	
14	0	0	0	0	508	493	0	492	37	46	
15	0	0	0	0	509	490	0	489	37	46	
0	0	0	0	0	502	487	0	487	37	46	
1	0	0	0	0	504	483	0	490	37	46	
2	0	0	0	0	495	477	0	493	37	46	
3	0	0	0	0	488	470	0	507	37	46	
4	0	0	0	0	486	463	0	500	37	46	
5	0	0	0	0	495	457	0	500	37	46	
6	0	0	0	0	496	452	0	500	37	46	
7	0	0	0	0	492	448	0	505	37	46	
8	0	0	0	0	498	445	0	529	37	46	
9	0	0	0	0	503	442	0	540	37	46	
10	0	0	0	0	503	438	0	555	37	46	
11	0	0	0	0	505	435	0	568	37	46	
12	0	0	0	0	516	434	0	567	37	46	
13	0	0	0	0	517	434	0	576	37	46	
14	0	0	0	0	525	435	0	569	37	46	
15	0	0	0	0	524	439	1	548	37	46	
0	0	0	0	0	529	444	0	528	37	46	
1	0	0	0	0	515	449	0	513	37	46	
2	0	0	0	0	516	454	0	504	37	46	
3	0	0	0	0	508	460	0	497	37	46	
4	0	0	0	0	513	467	0	493	37	46	
5	0	0	0	0	501	476	0	488	37	46	
6	0	0	0	0	492	479	0	485	37	46	
7	0	0	0	0	487	481	0	480	37	46	
8	0	0	0	0	493	484	0	480	37	46	
9	0	0	0	0	489	488	0	487	37	46	
10	0	0	0	0	486	497	0	481	37	46	
11	0	0	0	0	490	508	0	484	37	46	
12	0	0	0	0	492	518	0	488	37	46	
13	0	0	0	0	510	527	0	488	37	46	
14	0	0	0	0	511	537	0	485	37	46	
15	0	0	0	0	500	546	0	482	37	46	
0	0	0	0	0	515	556	0	480	37	46	
1	0	0	0	0	523	566	0	483	37	46	
2	0	0	0	0	519	577	0	486	37	46	
3	0	0	0	0	527	588	0	489	37	46	
4	0	0	0	0	522	599	0	491	37	46	
5	0	0	0	0	525	608	0	492	37	46	
6	0	0	0	0	512	615	0	488	37	46	
7	0	0	0	0	507	623	0	485	37	46	
8	0	0	0	0	508	626	0	484	37	46	
9	0	0	0	0	504	629	0	486	37	46	
10	0	0	0	0	485	629	0	491	37	46	
11	0	0	0	0	483	628	0	493	37	46	
12	0	0	0	0	491	626	0	496	37	46	
13	0	0	0	0	489	623	0	496	37	46	
14	0	0	0	0	492	619	0	495	37	46	
15	0	0	0	0	488	613	0	508	37	46	
0	0	0	0	0	498	607	0	511	37	46	
1	0	0	0	0	495	600	0	527	37	46	
2	0	0	0	0	506	591	0	537	37	46	
3	0	0	0	0	514	583	0	550	37	46	
4	0	0	0	0	519	574	0	566	37	46	
5	0	0	0	0	519	567	0	565	37	46	
6	0	0	0	0	524	560	0	571	38	46	
7	0	0	0	0	523	556	0	571	38	46	
8	0	0	0	0	520	551	0	569	38	46	
9	0	0	0	0	524	548	0	576	38	46	
10	0	0	0	0	514	543	0	570	38	46	
11	0	0	0	0	510	537	0	575	38	46	
12	0	0	0	0	502	533	0	575	38	46	
13	0	0	0	0	508	529	0	573	38	46	
14	0	0	0	0	492	528	0	579	38	46	
15	0	0	0	0	485	527	0	570	38	46	
0	0	0	0	0	491	525	0	574	38	46	
1	0	0	0	0	486	524	0	572	38	46	
2	0	0	0	0	487	521	0	570	38	46	
3	0	0	0	0	495	517	0	576	38	46	
4	0	0	0	0	501	513	0	571	38	46	
5	0	0	0	0	499	508	0	575	38	46	
6	0	0	0	0	508	504	0	573	38	46	
7	0	0	0	0	508	500	0	567	38	46	
8	0	0	0	0	525	495	0	561	38	46	
9	0	0	0	0	520	492	0	557	38	46	
10	0	0	0	0	525	488	0	553	38	46	
11	0	0	0	0	522	487	0	551	38	47	
12	0	0	0	0	523	485	0	542	38	47	
13	0	0	0	0	528	484	0	533	38	47	
14	0	0	0	0	509	486	0	524	38	47	
15	0	0	0	0	501	487	0	515	38	47	
0	0	0	0	0	508	488	0	508	38	47	
1	0	0	0	0	500	491	0	509	38	47	
2	0	0	0	0	491	494	0	499	38	47	
3	0	0	0	0	480	497	0	498	38	47	
4	0	0	0	0	494	499	0	498	38	47	
5	0	0	0	0	484	499	0	497	38	47	
6	0	0	0	0	494	499	0	496	38	47	
7	0	0	0	0	493	498	0	493	38	47	
8	0	0	0	0	495	496	0	493	38	47	
9	0	0	0	0	498	493	0	495	38	47	
10	0	0	0	0	510	489	0	496	38	47	
11	0	0	0	0	508	486	0	496	38	47	
12	0	0	0	0	520	483	0	498	38	47	
13	0	0	0	0	523	480	0	497	38	47	
14	0	0	0	0	520	479	0	494	38	47	
15	0	0	0	0	528	478	0	489	38	47	
0	0	0	0	0	521	479	0	487	38	47	
1	0	0	0	0	523	480	0	487	37	47	
2	0	0	0	0	509	482	0	491	38	48	
3	0	0	0	0	506	484	0	493	37	48	
4	0	0	0	0	511	487	0	493	37	48	
5	0	0	0	0	506	490	0	503	37	48	
6	0	0	0	0	499	492	0	499	37	48	
7	0	0	0	0	487	495	0	518	37	48	
8	0	0	0	0	494	497	0	527	37	48	
9	0	0	0	0	488	498	0	542	37	48	
10	0	0	0	0	486	497	0	557	37	48	
11	0	0	0	0	492	496	0	558	37	48	
12	0	0	0	0	502	495	0	570	37	48	
13	0	0	0	0	499	493	0	567	37	48	
14	0	0	0	0	503	490	0	568	37	48	
15	0	0	0	0	512	487	0	567	37	48	
0	0	0	0	0	520	484	0	559	37	48	
1	0	0	0	0	520	481	0	566	37	48	
2	0	0	0	0	522	480	0	562	37	48	
3	0	0	0	0	525	479	0	563	37	48	
4	0	0	0	0	527	480	0	564	37	48	
5	0	0	0	0	521	480	0	558	37	48	
6	0	0	0	0	515	482	0	563	37	48	
7	0	0	0	0	514	484	0	555	37	48	
8	0	0	0	0	507	487	0	554	37	48	
9	0	0	0	0	504	491	0	556	37	48	
10	0	0	0	0	481	494	0	551	37	48	
11	0	0	0	0	486	497	0	546	37	48	
12	0	0	0	0	489	499	0	553	37	48	
13	0	0	0	0	481	500	0	554	37	48	
14	0	0	0	0	490	500	0	548	37	48	
15	0	0	0	0	495	499	0	542	37	48	
0	0	0	0	0	505	498	0	536	37	48	
1	0	0	0	0	503	496	0	535	37	48	
2	0	0	0	0	505	493	0	534	37	48	
3	0	0	0	0	505	490	0	526	37	48	
4	0	0	0	0	522	487	0	517	37	48	
5	0	0	0	0	523	485	0	508	37	48	
6	0	0	0	0	521	483	0	499	37	48	
7	0	0	0	0	529	482	0	491	37	48	
8	0	0	0	0	524	483	0	487	37	48	
9	0	0	0	0	520	484	0	485	37	48	
10	0	0	0	0	510	485	0	485	37	48	
11	0	0	0	0	504	487	0	485	37	48	
12	0	0	0	0	505	490	0	485	37	48	
13	0	0	0	0	504	493	0	486	37	48	
14	0	0	0	0	494	496	0	486	37	48	
15	0	0	0	0	489	498	0	483	37	48	
0	0	0	0	0	491	500	0	481	37	48	
1	0	0	0	0	484	500	0	482	37	48	
2	0	0	0	0	484	501	0	483	37	48	
3	0	0	0	0	494	500	0	486	37	48	
4	0	0	0	0	497	499	0	487	37	48	
5	0	0	0	0	507	496	0	487	37	48	
6	0	0	0	0	515	493	0	485	37	48	
7	0	0	0	0	513	490	0	482	37	48	
8	0	0	0	0	519	487	0	480	37	48	
9	0	0	0	0	524	485	0	482	37	48	
10	0	0	0	0	521	483	0	485	37	48	
11	0	0	0	0	522	483	0	487	37	48	
12	0	0	0	0	520	483	0	488	37	48	
13	0	0	0	0	526	483	0	495	37	48	
14	0	0	0	0	508	484	0	515	37	48	
15	0	0	0	0	507	487	0	522	37	48	
0	0	0	0	0	507	489	0	535	37	48	
1	0	0	0	0	504	492	0	548	37	48	
2	0	0	0	0	493	495	0	551	37	48	
3	0	0	0	0	491	497	0	564	37	48	
4	0	0	0	0	487	498	0	560	37	48	
5	0	0	0	0	491	499	0	563	37	48	
6	0	0	0	0	494	499	0	563	37	48	
7	0	0	0	0	487	498	0	557	37	48	
8	0	0	0	0	499	496	0	564	37	48	
9	0	0	0	0	492	494	0	562	37	48	
10	0	0	0	0	499	490	0	558	37	48	
11	0	0	0	0	514	487	0	555	37	48	
12	0	0	0	0	524	484	0	565	37	48	
13	0	0	0	0	528	482	0	547	37	48	
14	0	0	0	0	520	480	0	555	37	48	
15	0	0	0	0	528	479	0	553	37	48	
0	0	0	0	0	521	478	0	549	37	48	
1	0	0	0	0	521	479	0	545	37	48	
2	0	0	0	0	513	480	0	543	37	48	
3	0	0	0	0	508	481	0	554	37	48	
4	0	0	0	0	499	483	0	543	37	48	
5	0	0	0	0	499	486	0	539	37	48	
6	0	0	0	0	491	488	0	526	37	48	
7	0	0	0	0	487	490	0	516	37	48	
8	0	0	0	0	488	492	0	507	37	48	
9	0	0	0	0	487	492	0	502	37	48	
10	0	0	0	0	488	491	0	496	37	48	
11	0	0	0	0	488	489	0	492	37	48	
12	0	0	0	0	490	487	0	490	37	48	
13	0	0	0	0	505	485	0	487	37	48	
14	0	0	0	0	512	482	0	483	37	48	
15	0	0	0	0	516	479	0	478	37	48	
0	0	0	0	0	518	476	0	475	37	48	
1	0	0	0	0	518	474	0	475	37	48	
2	0	0	0	0	516	472	0	476	37	48	
3	0	0	0	0	524	471	0	476	37	48	
4	0	0	0	0	527	470	0	477	37	48	
5	0	0	0	0	516	470	0	478	37	48	
6	0	0	0	0	519	471	0	477	37	48	
7	0	0	0	0	513	472	0	497	37	48	
8	0	0	0	0	505	475	0	511	37	48	
9	0	0	0	0	500	477	0	522	37	48	
10	0	0	0	0	486	479	0	539	37	48	
11	0	0	0	0	483	481	0	539	37	48	
12	0	0	0	0	493	482	0	548	37	48	
13	0	0	0	0	492	482	0	548	37	48	
14	0	0	0	0	490	482	0	548	37	48	
15	0	0	0	0	486	480	0	556	37	48	
0	0	0	0	0	500	477	0	548	37	48	
1	0	0	0	0	505	474	0	542	37	48	
2	0	0	0	0	505	472	0	537	37	47	
3	0	0	0	0	507	468	0	534	37	47	
4	0	0	0	0	524	465	0	531	37	47	
5	0	0	0	0	519	462	0	527	37	47	
6	0	0	0	0	519	459	0	518	37	47	
7	0	0	0	0	523	457	0	525	37	47	
8	0	0	0	0	518	457	0	531	37	47	
9	0	0	0	0	521	457	0	523	37	47	
10	0	0	0	0	517	459	0	511	37	47	
11	0	0	0	0	515	460	0	499	37	47	
12	0	0	0	0	510	462	0	498	37	47	
13	0	0	0	0	501	465	0	483	37	47	
14	0	0	0	0	494	467	0	474	37	47	
15	0	0	0	0	493	469	0	468	37	47	
0	0	0	0	0	492	471	0	467	37	47	
1	0	0	0	0	484	472	0	468	37	47	
2	0	0	0	0	483	472	0	470	37	47	
3	0	0	0	0	492	471	0	468	37	47	
4	0	0	0	0	499	469	0	470	37	47	
5	0	0	0	0	504	467	0	468	37	47	
6	0	0	0	0	512	464	0	463	37	47	
7	0	0	0	0	504	461	0	459	38	47	
8	0	0	0	0	514	458	0	472	38	47	
9	0	0	0	0	522	456	0	460	38	47	
10	0	0	0	0	527	454	0	464	38	47	
11	0	0	0	0	529	452	0	466	38	47	
12	0	0	0	0	517	452	0	468	38	47	
13	0	0	0	0	517	453	0	470	38	47	
14	0	0	0	0	508	454	0	469	38	47	
15	0	0	0	0	508	456	0	466	38	47	
0	0	0	0	0	507	459	0	476	38	47	
1	0	0	0	0	504	462	0	494	38	47	
2	0	0	0	0	494	463	0	513	38	47	
3	0	0	0	0	496	467	0	531	38	47	
4	0	0	0	0	495	468	0	547	38	47	
5	0	0	0	0	484	469	0	543	38	47	
6	0	0	0	0	488	470	0	543	38	47	
7	0	0	0	0	496	469	0	554	38	47	
8	0	0	0	0	497	468	0	553	38	47	
9	0	0	0	0	498	466	0	563	38	47	
10	0	0	0	0	504	463	0	564	38	47	
11	0	0	0	0	504	461	0	563	38	47	
12	0	0	0	0	523	459	0	570	38	47	
13	0	0	0	0	522	457	0	565	38	47	
14	0	0	0	0	522	455	0	569	38	47	
15	0	0	0	0	524	455	0	565	38	47	
0	0	0	0	0	524	455	0	557	38	47	
1	0	0	0	0	521	456	0	551	38	47	
2	0	0	0	0	518	458	0	545	38	47	
3	0	0	0	0	513	461	0	542	38	47	
4	0	0	0	0	509	463	0	540	38	47	
5	0	0	0	0	508	467	0	532	38	47	
6	0	0	0	0	483	470	0	521	37	47	
7	0	0	0	0	489	473	0	512	37	47	
8	0	0	0	0	490	476	0	504	37	47	
9	0	0	0	0	487	478	0	507	37	47	
10	0	0	0	0	492	479	0	491	37	47	
11	0	0	0	0	491	480	0	487	37	47	
12	0	0	0	0	490	480	0	486	37	47	
13	0	0	0	0	504	479	0	485	37	47	
14	0	0	0	0	503	478	0	481	37	47	
15	0	0	0	0	510	476	0	478	37	47	
0	0	0	0	0	518	476	0	477	37	47	
1	0	0	0	0	524	475	0	476	37	47	
2	0	0	0	0	526	475	0	478	37	47	
3	0	0	0	0	522	475	0	479	37	47	
4	0	0	0	0	523	477	0	480	37	47	
5	0	0	0	0	519	479	0	482	37	47	
6	0	0	0	0	515	481	0	480	37	47	
7	0	0	0	0	508	484	0	477	37	47	
8	0	0	0	0	501	488	0	478	37	47	
9	0	0	0	0	514	493	0	476	37	47	
10	0	0	0	0	488	498	0	479	37	47	
11	0	0	0	0	485	503	0	496	37	47	
12	0	0	0	0	496	507	0	483	37	47	
13	0	0	0	0	484	509	0	482	37	47	
14	0	0	0	0	489	512	0	481	37	47	
15	0	0	0	0	495	513	0	483	37	47	
0	0	0	0	0	503	514	0	507	37	47	
1	0	0	0	0	502	514	0	519	37	47	
2	0	0	0	0	501	513	0	535	37	47	
3	0	0	0	0	504	512	0	548	37	47	
4	0	0	0	0	518	511	0	549	37	47	
5	0	0	0	0	521	511	0	558	37	47	
6	0	0	0	0	521	510	0	551	37	47	
7	0	0	0	0	529	511	0	551	37	47	
8	0	0	0	0	524	513	0	555	37	48	
9	0	0	0	0	524	515	0	550	37	48	
10	0	0	0	0	513	517	0	558	37	47	
11	0	0	0	0	512	519	0	553	37	48	
12	0	0	0	0	508	524	0	554	37	48	
13	0	0	0	0	508	528	0	553	37	48	
14	0	0	0	0	493	531	0	546	37	48	
15	0	0	0	0	495	535	0	538	37	48	
0	0	0	0	0	489	538	0	535	37	48	
1	0	0	0	0	475	540	0	534	37	48	
2	0	0	0	0	483	541	0	530	37	48	
3	0	0	0	0	491	542	0	525	37	48	
4	0	0	0	0	499	541	0	516	37	48	
5	0	0	0	0	492	541	0	505	37	48	
6	0	0	0	0	508	540	0	495	37	48	
7	0	0	0	0	505	538	0	486	38	48	
8	0	0	0	0	524	536	0	480	37	48	
9	0	0	0	0	524	534	0	476	37	48	
10	0	0	0	0	524	533	0	474	38	48	
11	0	0	0	0	526	533	0	473	38	48	
12	0	0	0	0	530	534	0	475	38	48	
13	0	0	0	0	516	535	0	476	38	48	
14	0	0	0	0	509	536	0	473	37	48	
15	0	0	0	0	510	537	0	470	38	48	
0	0	0	0	0	511	540	0	467	37	48	
1	0	0	0	0	504	543	0	468	37	48	
2	0	0	0	0	492	546	0	472	37	48	
3	0	0	0	0	480	549	0	474	37	48	
4	0	0	0	0	490	551	0	481	37	48	
5	0	0	0	0	485	553	0	473	37	48	
6	0	0	0	0	487	553	0	473	37	48	
7	0	0	0	0	492	553	0	474	37	48	
8	0	0	0	0	494	552	0	473	37	48	
9	0	0	0	0	509	551	0	488	37	48	
10	0	0	0	0	508	548	0	472	37	48	
11	0	0	0	0	515	545	0	474	37	48	
12	0	0	0	0	524	543	0	477	37	48	
13	0	0	0	0	521	540	0	478	37	48	
14	0	0	0	0	517	539	0	498	37	48	
15	0	0	0	0	526	537	0	510	37	48	
0	0	0	0	0	516	537	0	525	37	48	
1	0	0	0	0	514	537	0	536	37	48	
2	0	0	0	0	516	538	0	538	37	48	
3	0	0	0	0	514	539	0	547	37	48	
4	0	0	0	0	504	541	0	550	37	48	
5	0	0	0	0	508	543	0	547	37	48	
6	0	0	0	0	489	545	0	552	37	48	
7	0	0	0	0	489	547	0	543	37	48	
8	0	0	0	0	493	549	0	548	37	48	
9	0	0	0	0	484	549	0	546	37	48	
10	0	0	0	0	492	548	0	544	37	48	
11	0	0	0	0	488	547	0	551	37	48	
12	0	0	0	0	504	545	0	544	37	48	
13	0	0	0	0	507	543	0	527	37	48	
14	0	0	0	0	505	540	0	508	37	48	
15	0	0	0	0	510	537	0	490	37	48	
0	0	0	0	0	520	534	0	479	37	48	
1	0	0	0	0	520	531	0	472	37	48	
2	0	0	0	0	521	528	0	471	37	48	
3	0	0	0	0	528	527	0	467	37	48	
4	0	0	0	0	518	527	0	467	37	48	
5	0	0	0	0	521	527	0	467	37	48	
6	0	0	0	0	515	527	0	466	37	48	
7	0	0	0	0	509	529	0	463	37	48	
8	0	0	0	0	508	531	0	461	37	48	
9	0	0	0	0	500	534	0	462	37	48	
10	0	0	0	0	487	536	0	464	37	48	
11	0	0	0	0	494	539	0	469	37	48	
12	0	0	0	0	487	541	0	492	37	48	
13	0	0	0	0	489	542	0	508	37	48	
14	0	0	0	0	492	542	0	518	37	48	
15	0	0	0	0	490	540	0	532	37	48	
0	0	0	0	0	489	539	0	531	37	48	
1	0	0	0	0	503	537	0	540	37	48	
2	0	0	0	0	508	534	0	543	37	48	
3	0	0	0	0	500	531	0	539	37	48	
4	0	0	0	0	514	528	0	533	37	48	
5	0	0	0	0	523	525	0	540	37	48	
6	0	0	0	0	526	523	0	535	37	48	
7	0	0	0	0	528	521	0	528	37	48	
8	0	0	0	0	521	521	0	524	37	48	
9	0	0	0	0	523	520	0	520	37	48	
10	0	0	0	0	520	521	0	520	37	48	
11	0	0	0	0	512	522	0	518	37	48	
12	0	0	0	0	505	523	0	510	37	48	
13	0	0	0	0	502	526	0	501	37	48	
14	0	0	0	0	494	528	0	491	37	48	
15	0	0	0	0	483	529	0	484	37	48	
0	0	0	0	0	495	531	0	479	37	48	
1	0	0	0	0	487	531	0	474	37	48	
2	0	0	0	0	481	531	0	472	37	48	
3	0	0	0	0	486	530	0	470	37	48	
4	0	0	0	0	492	529	0	470	37	48	
5	0	0	0	0	506	526	0	468	37	48	
6	0	0	0	0	506	524	0	465	37	48	
7	0	0	0	0	512	521	0	462	37	48	
8	0	0	0	0	523	517	0	461	37	48	
9	0	0	0	0	514	515	0	461	37	48	
10	0	0	0	0	527	513	0	461	37	48	
11	0	0	0	0	529	512	0	462	37	48	
12	0	0	0	0	524	511	0	463	37	48	
13	0	0	0	0	524	511	0	471	37	48	
14	0	0	0	0	513	513	0	461	37	48	
15	0	0	0	0	507	514	0	457	37	48	
0	0	0	0	0	503	516	0	457	37	48	
1	0	0	0	0	502	519	0	459	37	48	
2	0	0	0	0	487	521	0	462	37	48	
3	0	0	0	0	483	523	0	465	37	48	
4	0	0	0	0	496	525	0	468	37	48	
5	0	0	0	0	487	526	0	470	37	48	
6	0	0	0	0	489	526	0	482	37	48	
7	0	0	0	0	492	525	0	501	37	48	
8	0	0	0	0	499	524	0	509	37	48	
9	0	0	0	0	501	523	0	527	37	48	
10	0	0	0	0	506	519	0	536	37	48	
11	0	0	0	0	514	516	0	542	37	48	
12	0	0	0	0	522	513	0	552	37	48	
13	0	0	0	0	524	511	0	548	38	48	
14	0	0	0	0	517	509	0	555	37	48	
15	0	0	0	0	523	508	0	553	38	48	
0	0	0	0	0	528	508	0	549	38	48	
1	0	0	0	0	518	509	0	556	38	48	
2	0	0	0	0	508	510	0	550	38	48	
3	0	0	0	0	513	512	0	543	38	48	
4	0	0	0	0	507	514	0	539	38	48	
5	0	0	0	0	507	517	0	536	38	48	
6	0	0	0	0	492	519	0	534	38	48	
7	0	0	0	0	497	520	0	544	38	48	
8	0	0	0	0	488	521	0	540	38	48	
9	0	0	0	0	485	522	0	536	38	48	
10	0	0	0	0	484	523	0	533	38	48	
11	0	0	0	0	492	521	0	530	38	48	
12	0	0	0	0	495	520	0	528	38	48	
13	0	0	0	0	503	518	0	528	38	48	
14	0	0	0	0	507	515	0	519	38	48	
15	0	0	0	0	506	511	0	519	38	48	
0	0	0	0	0	523	508	0	533	38	48	
1	0	0	0	0	521	507	0	532	38	48	
2	0	0	0	0	515	504	0	523	38	48	
3	0	0	0	0	527	504	0	512	38	48	
4	0	0	0	0	518	504	0	502	38	48	
5	0	0	0	0	522	505	0	495	38	48	
6	0	0	0	0	513	507	0	486	38	48	
7	0	0	0	0	511	508	0	478	38	48	
8	0	0	0	0	504	511	0	474	38	48	
9	0	0	0	0	505	514	0	476	38	48	
10	0	0	0	0	492	517	0	479	38	48	
11	0	0	0	0	496	519	0	481	38	48	
12	0	0	0	0	488	520	0	485	38	48	
13	0	0	0	0	485	521	0	486	38	48	
14	0	0	0	0	494	521	0	485	38	48	
15	0	0	0	0	486	521	0	481	38	48	
0	0	0	0	0	497	519	0	481	38	48	
1	0	0	0	0	508	518	0	482	38	48	
2	0	0	0	0	503	515	0	483	38	48	
3	0	0	0	0	508	512	0	483	38	48	
4	0	0	0	0	524	510	0	484	38	48	
5	0	0	0	0	516	508	0	482	38	48	
6	0	0	0	0	519	505	0	479	38	48	
7	0	0	0	0	525	504	0	473	38	48	
8	0	0	0	0	523	504	0	482	38	48	
9	0	0	0	0	520	505	0	505	38	48	
10	0	0	0	0	515	506	0	516	38	48	
11	0	0	0	0	506	508	0	536	38	48	
12	0	0	0	0	507	512	0	545	38	48	
13	0	0	0	0	503	515	0	551	38	48	
14	0	0	0	0	492	517	0	559	38	48	
15	0	0	0	0	490	519	0	552	38	48	
0	0	0	0	0	485	521	0	555	37	48	
1	0	0	0	0	489	523	0	557	37	48	
2	0	0	0	0	492	523	0	543	37	48	
3	0	0	0	0	490	522	0	526	37	48	
4	0	0	0	0	499	521	0	512	37	48	
5	0	0	0	0	504	519	0	500	37	48	
6	0	0	0	0	500	517	0	489	37	48	
7	0	0	0	0	510	514	0	480	37	48	
8	0	0	0	0	524	512	0	476	37	48	
9	0	0	0	0	518	510	0	477	37	48	
