# OpenSignals Text File Format. Version 1
# {"98:D3:C1:FD:2F:E5": {"position": 0, "device": "bitalino_rev", "device name": "98:D3:C1:FD:2F:E5", "device connection": "/dev/tty.BITalino-2F-E5-DevB", "sampling rate": 1000, "resolution": [4, 1, 1, 1, 1, 10, 10, 10, 10, 6, 6], "firmware version": 1281, "comments": "", "keywords": "", "mode": 0, "sync interval": 2, "date": "2020-9-15", "time": "10:29:12.344", "channels": [1, 2, 3, 4, 5, 6], "sensor": ["RAW", "RAW", "RAW", "RAW", "RAW", "RAW"], "label": ["A1", "A2", "A3", "A4", "A5", "A6"], "column": ["nSeq", "I1", "I2", "O1", "O2", "A1", "A2", "A3", "A4", "A5", "A6"], "special": [{}, {}, {}, {}, {}, {}], "digital IO": [0, 0, 1, 1]}}
# EndOfHeader
0	0	0	0	0	211	472	0	0	38	21	
1	0	0	0	0	412	459	0	0	38	21	
2	0	0	0	0	628	453	0	1018	38	21	
3	0	0	0	0	693	455	0	1018	38	21	
4	0	0	0	0	736	460	0	1018	38	21	
5	0	0	0	0	957	480	0	1018	38	21	
6	0	0	0	0	924	502	0	1018	38	21	
7	0	0	0	0	875	523	0	1018	38	21	
8	0	0	0	0	620	535	0	1018	38	21	
9	0	0	0	0	385	536	0	1018	38	21	
10	0	0	0	0	400	535	0	1018	38	21	
11	0	0	0	0	419	536	0	169	38	21	
12	0	0	0	0	446	537	0	0	38	21	
13	0	0	0	0	438	538	0	0	38	21	
14	0	0	0	0	420	538	0	0	38	21	
15	0	0	0	0	426	534	0	0	38	21	
0	0	0	0	0	420	532	0	0	38	21	
1	0	0	0	0	417	530	0	0	38	21	
2	0	0	0	0	219	516	0	0	38	21	
3	0	0	0	0	94	494	0	0	38	21	
4	0	0	0	0	204	473	0	0	38	21	
5	0	0	0	0	409	459	0	0	38	21	
6	0	0	0	0	617	455	0	1018	38	21	
7	0	0	0	0	700	460	0	1018	38	21	
8	0	0	0	0	735	464	0	1018	38	21	
9	0	0	0	0	948	482	0	1018	38	21	
10	0	0	0	0	920	502	0	1018	38	21	
11	0	0	0	0	883	523	0	1018	38	21	
12	0	0	0	0	630	535	0	1018	38	21	
13	0	0	0	0	386	538	0	1018	38	21	
14	0	0	0	0	399	539	0	1018	38	21	
15	0	0	0	0	432	539	0	126	38	21	
0	0	0	0	0	439	538	0	0	38	21	
1	0	0	0	0	441	536	0	0	38	21	
2	0	0	0	0	416	537	0	0	37	21	
3	0	0	0	0	428	535	0	0	38	21	
4	0	0	0	0	414	532	0	0	38	21	
5	0	0	0	0	421	527	0	0	38	21	
6	0	0	0	0	214	516	0	0	38	21	
7	0	0	0	0	99	492	0	0	38	21	
8	0	0	0	0	210	470	0	0	38	21	
9	0	0	0	0	414	455	0	0	38	21	
10	0	0	0	0	620	453	0	1018	38	21	
11	0	0	0	0	700	455	0	1018	38	21	
12	0	0	0	0	732	460	0	1018	38	21	
13	0	0	0	0	949	480	0	1018	38	21	
14	0	0	0	0	917	499	0	1018	38	21	
15	0	0	0	0	873	521	0	1018	38	21	
0	0	0	0	0	630	534	0	1018	38	21	
1	0	0	0	0	389	536	0	1018	38	21	
2	0	0	0	0	400	537	0	1018	37	21	
3	0	0	0	0	430	536	0	395	38	21	
4	0	0	0	0	445	536	0	0	38	21	
5	0	0	0	0	435	536	0	0	38	21	
6	0	0	0	0	420	536	0	0	38	21	
7	0	0	0	0	426	535	0	0	38	21	
8	0	0	0	0	405	533	0	0	38	21	
9	0	0	0	0	419	529	0	0	38	21	
10	0	0	0	0	223	518	0	0	37	21	
11	0	0	0	0	99	494	0	0	38	21	
12	0	0	0	0	203	472	0	0	38	21	
13	0	0	0	0	406	457	0	0	38	21	
14	0	0	0	0	621	453	0	1018	38	21	
15	0	0	0	0	698	455	0	1018	38	21	
0	0	0	0	0	730	460	0	1018	38	21	
1	0	0	0	0	952	478	0	1018	38	21	
2	0	0	0	0	921	497	0	1018	37	21	
3	0	0	0	0	876	519	0	1018	38	21	
4	0	0	0	0	627	532	0	1018	38	21	
5	0	0	0	0	389	534	0	1018	38	21	
6	0	0	0	0	398	533	0	1018	38	21	
7	0	0	0	0	423	532	0	12	38	21	
8	0	0	0	0	450	535	0	0	38	21	
9	0	0	0	0	453	535	0	0	38	21	
10	0	0	0	0	419	535	0	0	38	21	
11	0	0	0	0	423	531	0	0	38	21	
12	0	0	0	0	415	529	0	0	38	21	
13	0	0	0	0	427	527	0	0	38	21	
14	0	0	0	0	217	517	0	0	38	21	
15	0	0	0	0	95	494	0	0	38	21	
0	0	0	0	0	211	473	0	0	38	21	
1	0	0	0	0	402	461	0	0	38	21	
2	0	0	0	0	608	457	0	1018	38	21	
3	0	0	0	0	695	459	0	1018	38	21	
4	0	0	0	0	734	463	0	1018	38	21	
5	0	0	0	0	945	480	0	1018	38	21	
6	0	0	0	0	920	499	0	1018	38	21	
7	0	0	0	0	879	520	0	1018	38	21	
8	0	0	0	0	628	534	0	1018	38	21	
9	0	0	0	0	391	537	0	1018	38	21	
10	0	0	0	0	396	534	0	1018	38	21	
11	0	0	0	0	424	535	0	0	38	21	
12	0	0	0	0	450	536	0	0	38	21	
13	0	0	0	0	440	537	0	0	38	21	
14	0	0	0	0	423	535	0	0	38	21	
15	0	0	0	0	433	533	0	0	38	21	
0	0	0	0	0	409	531	0	0	38	21	
1	0	0	0	0	430	529	0	0	38	21	
2	0	0	0	0	224	517	0	0	38	21	
3	0	0	0	0	92	494	0	0	38	21	
4	0	0	0	0	205	471	0	0	38	21	
5	0	0	0	0	403	457	0	0	38	21	
6	0	0	0	0	608	454	0	1018	38	21	
7	0	0	0	0	693	456	0	1018	38	21	
8	0	0	0	0	728	461	0	1018	38	21	
9	0	0	0	0	950	480	0	1018	38	21	
10	0	0	0	0	923	501	0	1018	37	21	
11	0	0	0	0	878	524	0	1018	38	21	
12	0	0	0	0	632	536	0	1018	38	21	
13	0	0	0	0	390	538	0	1018	38	21	
14	0	0	0	0	399	538	0	1018	38	21	
15	0	0	0	0	429	540	0	57	38	21	
0	0	0	0	0	447	539	0	0	38	21	
1	0	0	0	0	440	540	0	0	38	21	
2	0	0	0	0	420	540	0	0	38	21	
3	0	0	0	0	427	536	0	0	38	21	
4	0	0	0	0	412	531	0	0	38	21	
5	0	0	0	0	428	528	0	0	38	21	
6	0	0	0	0	228	517	0	0	38	21	
7	0	0	0	0	101	494	0	0	38	21	
8	0	0	0	0	206	472	0	0	38	21	
9	0	0	0	0	402	457	0	0	38	21	
10	0	0	0	0	615	455	0	1018	38	21	
11	0	0	0	0	689	456	0	1018	38	21	
12	0	0	0	0	718	461	0	1018	38	21	
13	0	0	0	0	950	478	0	1018	38	21	
14	0	0	0	0	914	500	0	1018	38	21	
15	0	0	0	0	883	520	0	1018	38	21	
0	0	0	0	0	634	534	0	1018	38	21	
1	0	0	0	0	390	536	0	1018	38	21	
2	0	0	0	0	393	537	0	1018	37	21	
3	0	0	0	0	419	538	0	280	38	21	
4	0	0	0	0	446	538	0	0	38	21	
5	0	0	0	0	441	540	0	0	38	21	
6	0	0	0	0	420	537	0	0	38	21	
7	0	0	0	0	433	535	0	0	38	21	
8	0	0	0	0	415	534	0	0	38	21	
9	0	0	0	0	425	531	0	0	38	21	
10	0	0	0	0	223	519	0	0	37	21	
11	0	0	0	0	98	496	0	0	38	21	
12	0	0	0	0	197	474	0	0	38	21	
13	0	0	0	0	397	459	0	0	38	21	
14	0	0	0	0	619	455	0	1018	38	21	
15	0	0	0	0	702	457	0	1018	38	21	
0	0	0	0	0	715	459	0	1018	38	21	
1	0	0	0	0	953	476	0	1018	38	21	
2	0	0	0	0	921	496	0	1018	38	21	
3	0	0	0	0	880	520	0	1018	38	21	
4	0	0	0	0	632	534	0	1018	38	21	
5	0	0	0	0	393	535	0	1018	38	21	
6	0	0	0	0	405	535	0	1018	38	21	
7	0	0	0	0	425	536	0	536	38	21	
8	0	0	0	0	440	537	0	0	38	21	
9	0	0	0	0	440	538	0	0	38	21	
10	0	0	0	0	418	538	0	0	37	21	
11	0	0	0	0	432	536	0	0	38	21	
12	0	0	0	0	417	533	0	0	38	21	
13	0	0	0	0	424	530	0	0	38	21	
14	0	0	0	0	224	519	0	0	38	21	
15	0	0	0	0	97	498	0	0	38	21	
0	0	0	0	0	203	475	0	0	38	21	
1	0	0	0	0	397	460	0	0	38	21	
2	0	0	0	0	615	455	0	1018	38	21	
3	0	0	0	0	692	455	0	1018	38	21	
4	0	0	0	0	716	460	0	1018	38	21	
5	0	0	0	0	948	478	0	1018	38	21	
6	0	0	0	0	913	498	0	1018	38	21	
7	0	0	0	0	883	519	0	1018	38	21	
8	0	0	0	0	633	535	0	1018	38	21	
9	0	0	0	0	397	537	0	1018	38	21	
10	0	0	0	0	401	537	0	1018	38	21	
11	0	0	0	0	427	536	0	363	38	21	
12	0	0	0	0	446	537	0	0	38	21	
13	0	0	0	0	440	536	0	0	38	21	
14	0	0	0	0	420	537	0	0	38	21	
15	0	0	0	0	438	536	0	0	38	21	
0	0	0	0	0	413	534	0	0	38	21	
1	0	0	0	0	419	530	0	0	38	21	
2	0	0	0	0	219	518	0	0	38	21	
3	0	0	0	0	97	495	0	0	38	21	
4	0	0	0	0	196	474	0	0	38	21	
5	0	0	0	0	399	460	0	0	38	21	
6	0	0	0	0	611	456	0	1018	38	21	
7	0	0	0	0	691	456	0	1018	38	21	
8	0	0	0	0	715	460	0	1018	38	21	
9	0	0	0	0	951	478	0	1018	38	21	
10	0	0	0	0	916	497	0	1018	37	21	
11	0	0	0	0	891	521	0	1018	38	21	
12	0	0	0	0	641	534	0	1018	38	21	
13	0	0	0	0	401	534	0	1018	38	21	
14	0	0	0	0	396	534	0	1018	38	21	
15	0	0	0	0	428	535	0	366	38	21	
0	0	0	0	0	438	536	0	0	38	21	
1	0	0	0	0	443	536	0	0	38	21	
2	0	0	0	0	426	537	0	0	37	21	
3	0	0	0	0	431	536	0	0	38	21	
4	0	0	0	0	414	531	0	0	38	21	
5	0	0	0	0	424	528	0	0	38	21	
6	0	0	0	0	224	517	0	0	38	21	
7	0	0	0	0	101	496	0	0	38	21	
8	0	0	0	0	203	474	0	0	38	21	
9	0	0	0	0	397	459	0	0	38	21	
10	0	0	0	0	611	456	0	1018	38	21	
11	0	0	0	0	695	457	0	1018	38	21	
12	0	0	0	0	712	461	0	1018	38	21	
13	0	0	0	0	947	479	0	1018	38	21	
14	0	0	0	0	911	499	0	1018	38	21	
15	0	0	0	0	892	524	0	1018	38	21	
0	0	0	0	0	636	537	0	1018	38	21	
1	0	0	0	0	401	540	0	1018	38	21	
2	0	0	0	0	399	540	0	1018	38	21	
3	0	0	0	0	430	539	0	357	38	21	
4	0	0	0	0	439	540	0	0	38	21	
5	0	0	0	0	444	541	0	0	38	21	
6	0	0	0	0	427	540	0	0	38	21	
7	0	0	0	0	434	538	0	0	38	21	
8	0	0	0	0	410	533	0	0	38	21	
9	0	0	0	0	431	531	0	0	38	21	
10	0	0	0	0	235	519	0	0	37	21	
11	0	0	0	0	93	496	0	0	38	21	
12	0	0	0	0	199	473	0	0	38	21	
13	0	0	0	0	391	458	0	0	38	21	
14	0	0	0	0	594	453	0	1018	38	21	
15	0	0	0	0	688	455	0	1018	38	21	
0	0	0	0	0	713	460	0	1018	38	21	
1	0	0	0	0	950	480	0	1018	38	21	
2	0	0	0	0	916	498	0	1018	38	21	
3	0	0	0	0	888	520	0	1018	38	21	
4	0	0	0	0	636	534	0	1018	38	21	
5	0	0	0	0	401	536	0	1018	38	21	
6	0	0	0	0	396	536	0	1018	38	21	
7	0	0	0	0	431	537	0	600	38	21	
8	0	0	0	0	443	536	0	0	38	21	
9	0	0	0	0	442	537	0	0	38	21	
10	0	0	0	0	428	536	0	0	38	21	
11	0	0	0	0	431	535	0	0	38	21	
12	0	0	0	0	406	531	0	0	38	21	
13	0	0	0	0	422	527	0	0	38	21	
14	0	0	0	0	225	516	0	0	38	21	
15	0	0	0	0	90	494	0	0	38	21	
0	0	0	0	0	203	472	0	0	38	21	
1	0	0	0	0	393	456	0	0	38	21	
2	0	0	0	0	611	451	0	1018	38	21	
3	0	0	0	0	685	454	0	1018	38	21	
4	0	0	0	0	713	459	0	1018	38	21	
5	0	0	0	0	941	476	0	1018	38	21	
6	0	0	0	0	910	497	0	1018	38	21	
7	0	0	0	0	888	518	0	1018	38	21	
8	0	0	0	0	635	531	0	1018	38	21	
9	0	0	0	0	398	535	0	1018	38	21	
10	0	0	0	0	407	535	0	1018	38	21	
11	0	0	0	0	428	536	0	0	38	21	
12	0	0	0	0	440	536	0	0	38	21	
13	0	0	0	0	446	536	0	0	38	21	
14	0	0	0	0	427	535	0	0	38	21	
15	0	0	0	0	436	535	0	0	38	21	
0	0	0	0	0	414	532	0	0	38	21	
1	0	0	0	0	422	527	0	0	38	21	
2	0	0	0	0	224	517	0	0	37	21	
3	0	0	0	0	95	494	0	0	38	21	
4	0	0	0	0	204	473	0	0	38	21	
5	0	0	0	0	389	457	0	0	38	21	
6	0	0	0	0	612	452	0	0	38	21	
7	0	0	0	0	688	455	0	1018	38	21	
8	0	0	0	0	703	461	0	1018	38	21	
9	0	0	0	0	946	479	0	1018	38	21	
10	0	0	0	0	913	498	0	1018	37	21	
11	0	0	0	0	887	521	0	1018	38	21	
12	0	0	0	0	639	536	0	1018	38	21	
13	0	0	0	0	394	537	0	1018	38	21	
14	0	0	0	0	400	536	0	605	38	21	
15	0	0	0	0	427	535	0	0	38	21	
0	0	0	0	0	433	536	0	0	38	21	
1	0	0	0	0	452	536	0	0	38	21	
2	0	0	0	0	429	536	0	0	38	21	
3	0	0	0	0	439	535	0	0	38	21	
4	0	0	0	0	411	531	0	0	38	21	
5	0	0	0	0	423	529	0	0	38	21	
6	0	0	0	0	224	519	0	0	38	21	
7	0	0	0	0	97	496	0	0	38	21	
8	0	0	0	0	204	473	0	0	38	21	
9	0	0	0	0	390	458	0	0	38	21	
10	0	0	0	0	601	454	0	0	37	21	
11	0	0	0	0	696	456	0	1018	38	21	
12	0	0	0	0	707	460	0	1018	38	21	
13	0	0	0	0	946	476	0	1018	38	21	
14	0	0	0	0	915	496	0	1018	38	21	
15	0	0	0	0	894	518	0	1018	38	21	
0	0	0	0	0	640	535	0	1018	38	21	
1	0	0	0	0	403	536	0	1018	38	21	
2	0	0	0	0	396	535	0	609	38	21	
3	0	0	0	0	432	536	0	0	38	21	
4	0	0	0	0	441	537	0	0	38	21	
5	0	0	0	0	447	538	0	0	38	21	
6	0	0	0	0	425	537	0	0	38	21	
7	0	0	0	0	437	535	0	0	38	21	
8	0	0	0	0	403	531	0	0	38	21	
9	0	0	0	0	422	527	0	0	38	21	
10	0	0	0	0	230	515	0	0	37	21	
11	0	0	0	0	96	493	0	0	38	21	
12	0	0	0	0	206	472	0	0	38	21	
13	0	0	0	0	390	458	0	0	38	21	
14	0	0	0	0	615	456	0	428	38	21	
15	0	0	0	0	690	456	0	1018	38	21	
0	0	0	0	0	704	462	0	1018	38	21	
1	0	0	0	0	950	479	0	1018	38	21	
2	0	0	0	0	916	497	0	1018	38	21	
3	0	0	0	0	892	519	0	1018	38	21	
4	0	0	0	0	642	536	0	1018	38	21	
5	0	0	0	0	406	538	0	1018	38	21	
6	0	0	0	0	393	536	0	1018	38	21	
7	0	0	0	0	431	536	0	0	38	21	
8	0	0	0	0	438	535	0	0	38	21	
9	0	0	0	0	440	536	0	0	38	21	
10	0	0	0	0	434	534	0	0	38	21	
11	0	0	0	0	442	534	0	0	38	21	
12	0	0	0	0	409	531	0	0	38	21	
13	0	0	0	0	423	527	0	0	38	21	
14	0	0	0	0	227	516	0	0	38	21	
15	0	0	0	0	99	496	0	0	38	21	
0	0	0	0	0	198	473	0	0	38	21	
1	0	0	0	0	383	459	0	0	38	21	
2	0	0	0	0	608	454	0	896	38	21	
3	0	0	0	0	686	457	0	1018	38	21	
4	0	0	0	0	709	459	0	1018	38	21	
5	0	0	0	0	947	477	0	1018	38	21	
6	0	0	0	0	920	496	0	1018	38	21	
7	0	0	0	0	885	519	0	1018	38	21	
8	0	0	0	0	645	532	0	1018	38	21	
9	0	0	0	0	399	535	0	1018	38	21	
10	0	0	0	0	394	536	0	1018	37	21	
11	0	0	0	0	431	536	0	0	38	21	
12	0	0	0	0	441	538	0	0	38	21	
13	0	0	0	0	446	539	0	0	38	21	
14	0	0	0	0	430	537	0	0	38	21	
15	0	0	0	0	441	536	0	0	38	21	
0	0	0	0	0	409	535	0	0	38	21	
1	0	0	0	0	422	531	0	0	38	21	
2	0	0	0	0	230	519	0	0	38	21	
3	0	0	0	0	85	498	0	0	38	21	
4	0	0	0	0	207	478	0	0	38	21	
5	0	0	0	0	385	461	0	0	38	21	
6	0	0	0	0	596	456	0	925	38	21	
7	0	0	0	0	689	457	0	1018	38	21	
8	0	0	0	0	705	460	0	1018	38	21	
9	0	0	0	0	947	475	0	1018	38	21	
10	0	0	0	0	908	495	0	1018	38	21	
11	0	0	0	0	894	516	0	1018	38	21	
12	0	0	0	0	648	530	0	1018	38	21	
13	0	0	0	0	407	532	0	1018	38	21	
14	0	0	0	0	399	532	0	1018	38	21	
15	0	0	0	0	432	533	0	0	38	21	
0	0	0	0	0	438	534	0	0	38	21	
1	0	0	0	0	440	535	0	0	38	21	
2	0	0	0	0	431	534	0	0	38	21	
3	0	0	0	0	438	533	0	0	38	21	
4	0	0	0	0	406	531	0	0	38	21	
5	0	0	0	0	424	530	0	0	38	21	
6	0	0	0	0	236	519	0	0	38	21	
7	0	0	0	0	97	495	0	0	38	21	
8	0	0	0	0	204	475	0	0	38	21	
9	0	0	0	0	384	460	0	0	38	21	
10	0	0	0	0	605	455	0	1018	38	21	
11	0	0	0	0	694	455	0	1018	38	21	
12	0	0	0	0	702	458	0	1018	38	21	
13	0	0	0	0	940	473	0	1018	38	21	
14	0	0	0	0	908	493	0	1018	38	21	
15	0	0	0	0	887	518	0	1018	38	21	
0	0	0	0	0	648	532	0	1018	38	21	
1	0	0	0	0	408	534	0	1018	38	21	
2	0	0	0	0	392	532	0	1018	38	21	
3	0	0	0	0	425	531	0	164	38	21	
4	0	0	0	0	439	532	0	0	38	21	
5	0	0	0	0	437	534	0	0	38	21	
6	0	0	0	0	432	534	0	0	38	21	
7	0	0	0	0	439	534	0	0	38	21	
8	0	0	0	0	412	532	0	0	38	21	
9	0	0	0	0	426	529	0	0	38	21	
10	0	0	0	0	228	516	0	0	37	21	
11	0	0	0	0	96	495	0	0	38	21	
12	0	0	0	0	198	472	0	0	38	21	
13	0	0	0	0	382	457	0	0	38	21	
14	0	0	0	0	604	452	0	1018	38	21	
15	0	0	0	0	691	455	0	1018	38	21	
0	0	0	0	0	700	459	0	1018	38	21	
1	0	0	0	0	954	475	0	1018	38	21	
2	0	0	0	0	905	495	0	1018	38	21	
3	0	0	0	0	886	518	0	1018	38	21	
4	0	0	0	0	653	532	0	1018	38	21	
5	0	0	0	0	408	536	0	1018	38	21	
6	0	0	0	0	391	537	0	1018	38	21	
7	0	0	0	0	430	537	0	294	38	21	
8	0	0	0	0	437	537	0	0	38	21	
9	0	0	0	0	442	538	0	0	38	21	
10	0	0	0	0	438	538	0	0	38	21	
11	0	0	0	0	432	535	0	0	38	21	
12	0	0	0	0	408	532	0	0	38	21	
13	0	0	0	0	422	529	0	0	38	21	
14	0	0	0	0	236	518	0	0	38	21	
15	0	0	0	0	93	495	0	0	38	21	
0	0	0	0	0	199	472	0	0	38	21	
1	0	0	0	0	374	458	0	0	38	21	
2	0	0	0	0	603	452	0	1018	37	21	
3	0	0	0	0	688	455	0	1018	38	21	
4	0	0	0	0	700	460	0	1018	38	21	
5	0	0	0	0	944	476	0	1018	38	21	
6	0	0	0	0	906	495	0	1018	38	21	
7	0	0	0	0	896	518	0	1018	38	21	
8	0	0	0	0	644	534	0	1018	38	21	
9	0	0	0	0	412	536	0	1018	38	21	
10	0	0	0	0	398	534	0	1018	38	21	
11	0	0	0	0	429	535	0	715	38	21	
12	0	0	0	0	437	535	0	0	38	21	
13	0	0	0	0	449	534	0	0	38	21	
14	0	0	0	0	429	535	0	0	38	21	
15	0	0	0	0	439	534	0	0	38	21	
0	0	0	0	0	412	531	0	0	38	21	
1	0	0	0	0	419	527	0	0	38	21	
2	0	0	0	0	241	518	0	0	38	21	
3	0	0	0	0	93	494	0	0	38	21	
4	0	0	0	0	205	472	0	0	38	21	
5	0	0	0	0	371	457	0	0	38	21	
6	0	0	0	0	601	451	0	1018	38	21	
7	0	0	0	0	687	453	0	1018	38	21	
8	0	0	0	0	698	457	0	1018	38	21	
9	0	0	0	0	947	472	0	1018	38	21	
10	0	0	0	0	910	492	0	1018	38	21	
11	0	0	0	0	892	516	0	1018	38	21	
12	0	0	0	0	648	531	0	1018	38	21	
13	0	0	0	0	406	535	0	1018	38	21	
14	0	0	0	0	400	537	0	1018	38	21	
15	0	0	0	0	431	539	0	1018	38	21	
0	0	0	0	0	432	537	0	0	38	21	
1	0	0	0	0	448	537	0	0	38	21	
2	0	0	0	0	435	537	0	0	38	21	
3	0	0	0	0	440	535	0	0	38	21	
4	0	0	0	0	417	533	0	0	38	21	
5	0	0	0	0	421	529	0	0	38	21	
6	0	0	0	0	238	519	0	0	38	21	
7	0	0	0	0	94	497	0	0	38	21	
8	0	0	0	0	193	476	0	0	38	21	
9	0	0	0	0	372	459	0	0	38	21	
10	0	0	0	0	593	453	0	1018	38	21	
11	0	0	0	0	696	455	0	1018	38	21	
12	0	0	0	0	698	459	0	1018	38	21	
13	0	0	0	0	940	476	0	1018	38	21	
14	0	0	0	0	903	495	0	1018	38	21	
15	0	0	0	0	887	515	0	1018	38	21	
0	0	0	0	0	657	531	0	1018	38	21	
1	0	0	0	0	407	534	0	1018	38	21	
2	0	0	0	0	393	535	0	1018	38	21	
3	0	0	0	0	434	537	0	1018	38	21	
4	0	0	0	0	438	538	0	0	38	21	
5	0	0	0	0	434	538	0	0	38	21	
6	0	0	0	0	440	536	0	0	38	21	
7	0	0	0	0	448	536	0	0	38	21	
8	0	0	0	0	403	532	0	0	38	21	
9	0	0	0	0	416	529	0	0	38	21	
10	0	0	0	0	245	518	0	0	37	21	
11	0	0	0	0	94	496	0	0	38	21	
12	0	0	0	0	193	475	0	0	38	21	
13	0	0	0	0	371	459	0	0	38	21	
14	0	0	0	0	596	454	0	1018	38	21	
15	0	0	0	0	687	455	0	1018	38	21	
0	0	0	0	0	699	459	0	1018	38	21	
1	0	0	0	0	938	476	0	1018	38	21	
2	0	0	0	0	899	496	0	1018	37	21	
3	0	0	0	0	897	517	0	1018	38	21	
4	0	0	0	0	656	531	0	1018	38	21	
5	0	0	0	0	418	535	0	1018	38	21	
6	0	0	0	0	399	536	0	1018	38	21	
7	0	0	0	0	422	538	0	1018	38	21	
8	0	0	0	0	435	539	0	0	38	21	
9	0	0	0	0	438	539	0	0	38	21	
10	0	0	0	0	437	539	0	0	38	21	
11	0	0	0	0	441	536	0	0	38	21	
12	0	0	0	0	413	535	0	0	38	21	
13	0	0	0	0	421	532	0	0	38	21	
14	0	0	0	0	243	524	0	0	38	21	
15	0	0	0	0	83	501	0	0	38	21	
0	0	0	0	0	201	478	0	0	38	21	
1	0	0	0	0	368	460	0	0	38	21	
2	0	0	0	0	590	455	0	1018	38	21	
3	0	0	0	0	690	455	0	1018	38	21	
4	0	0	0	0	696	458	0	1018	38	21	
5	0	0	0	0	940	476	0	1018	38	21	
6	0	0	0	0	898	495	0	1018	38	21	
7	0	0	0	0	889	517	0	1018	38	21	
8	0	0	0	0	656	530	0	1018	38	21	
9	0	0	0	0	415	535	0	1018	38	21	
10	0	0	0	0	403	535	0	1018	37	21	
11	0	0	0	0	430	536	0	548	38	21	
12	0	0	0	0	433	537	0	0	38	21	
13	0	0	0	0	441	539	0	0	38	21	
14	0	0	0	0	445	539	0	0	38	21	
15	0	0	0	0	444	537	0	0	38	21	
0	0	0	0	0	406	535	0	0	38	21	
1	0	0	0	0	422	531	0	0	38	21	
2	0	0	0	0	238	520	0	0	38	21	
3	0	0	0	0	89	498	0	0	38	21	
4	0	0	0	0	199	476	0	0	38	21	
5	0	0	0	0	363	459	0	0	38	21	
6	0	0	0	0	589	455	0	1018	38	21	
7	0	0	0	0	693	456	0	1018	38	21	
8	0	0	0	0	689	459	0	1018	38	21	
9	0	0	0	0	940	476	0	1018	38	21	
10	0	0	0	0	908	495	0	1018	37	21	
11	0	0	0	0	895	518	0	1018	38	21	
12	0	0	0	0	655	533	0	1018	38	21	
13	0	0	0	0	415	536	0	1018	38	21	
14	0	0	0	0	395	536	0	1018	38	21	
15	0	0	0	0	433	537	0	621	38	21	
0	0	0	0	0	439	537	0	0	38	21	
1	0	0	0	0	446	539	0	0	38	21	
2	0	0	0	0	440	539	0	0	37	21	
3	0	0	0	0	442	537	0	0	38	21	
4	0	0	0	0	407	533	0	0	38	21	
5	0	0	0	0	412	531	0	0	38	21	
6	0	0	0	0	247	521	0	0	38	21	
7	0	0	0	0	96	499	0	0	38	21	
8	0	0	0	0	196	478	0	0	38	21	
9	0	0	0	0	364	463	0	0	38	21	
10	0	0	0	0	595	459	0	1018	38	21	
11	0	0	0	0	688	460	0	1018	38	21	
12	0	0	0	0	686	463	0	1018	38	21	
13	0	0	0	0	935	480	0	1018	38	21	
14	0	0	0	0	907	500	0	1018	38	21	
15	0	0	0	0	903	520	0	1018	38	21	
0	0	0	0	0	662	535	0	1018	38	21	
1	0	0	0	0	416	538	0	1018	38	21	
2	0	0	0	0	394	537	0	1018	38	21	
3	0	0	0	0	432	537	0	1018	38	21	
4	0	0	0	0	431	539	0	0	38	21	
5	0	0	0	0	443	538	0	0	38	21	
6	0	0	0	0	446	537	0	0	38	21	
7	0	0	0	0	439	536	0	0	38	21	
8	0	0	0	0	411	533	0	0	38	21	
9	0	0	0	0	423	529	0	0	38	21	
10	0	0	0	0	247	518	0	0	38	21	
11	0	0	0	0	87	495	0	0	38	21	
12	0	0	0	0	189	475	0	0	38	21	
13	0	0	0	0	364	458	0	0	38	21	
14	0	0	0	0	592	454	0	1018	38	21	
15	0	0	0	0	683	456	0	1018	38	21	
0	0	0	0	0	700	459	0	1018	38	21	
1	0	0	0	0	947	476	0	1018	38	21	
2	0	0	0	0	900	495	0	1018	38	21	
3	0	0	0	0	889	518	0	1018	38	21	
4	0	0	0	0	663	534	0	1018	38	21	
5	0	0	0	0	419	538	0	1018	38	21	
6	0	0	0	0	392	537	0	1018	38	21	
7	0	0	0	0	428	537	0	1018	38	21	
8	0	0	0	0	437	535	0	371	38	21	
9	0	0	0	0	440	537	0	0	38	21	
10	0	0	0	0	443	538	0	0	38	21	
11	0	0	0	0	447	537	0	0	38	21	
12	0	0	0	0	409	533	0	0	38	21	
13	0	0	0	0	424	528	0	0	38	21	
14	0	0	0	0	253	518	0	0	38	21	
15	0	0	0	0	91	497	0	0	38	21	
0	0	0	0	0	193	475	0	0	38	21	
1	0	0	0	0	359	458	0	0	38	21	
2	0	0	0	0	593	454	0	1018	38	21	
3	0	0	0	0	692	454	0	1018	38	21	
4	0	0	0	0	691	456	0	1018	38	21	
5	0	0	0	0	942	474	0	1018	38	21	
6	0	0	0	0	900	492	0	1018	38	21	
7	0	0	0	0	888	513	0	1018	38	21	
8	0	0	0	0	657	529	0	1018	38	21	
9	0	0	0	0	414	533	0	1018	38	21	
10	0	0	0	0	393	531	0	1018	38	21	
11	0	0	0	0	430	532	0	1018	38	21	
12	0	0	0	0	439	532	0	255	38	21	
13	0	0	0	0	443	534	0	0	38	21	
14	0	0	0	0	441	536	0	0	38	21	
15	0	0	0	0	442	535	0	0	38	21	
0	0	0	0	0	410	534	0	0	38	21	
1	0	0	0	0	415	531	0	0	38	21	
2	0	0	0	0	259	522	0	0	38	21	
3	0	0	0	0	87	500	0	0	38	21	
4	0	0	0	0	196	478	0	0	38	21	
5	0	0	0	0	359	460	0	0	38	21	
6	0	0	0	0	586	456	0	1018	38	21	
7	0	0	0	0	688	457	0	1018	38	21	
8	0	0	0	0	692	461	0	1018	38	21	
9	0	0	0	0	942	476	0	1018	38	21	
10	0	0	0	0	906	496	0	1018	38	21	
11	0	0	0	0	895	517	0	1018	38	21	
12	0	0	0	0	660	532	0	1018	38	21	
13	0	0	0	0	415	536	0	1018	38	21	
14	0	0	0	0	395	534	0	1018	38	21	
15	0	0	0	0	434	536	0	1018	38	21	
0	0	0	0	0	438	536	0	403	38	21	
1	0	0	0	0	444	535	0	0	38	21	
2	0	0	0	0	438	536	0	0	37	21	
3	0	0	0	0	444	533	0	0	38	21	
4	0	0	0	0	407	528	0	0	38	21	
5	0	0	0	0	421	525	0	0	38	21	
6	0	0	0	0	257	517	0	0	38	21	
7	0	0	0	0	91	497	0	0	38	21	
8	0	0	0	0	186	475	0	0	38	21	
9	0	0	0	0	358	457	0	0	38	21	
10	0	0	0	0	592	452	0	1018	38	21	
11	0	0	0	0	691	454	0	1018	38	21	
12	0	0	0	0	684	456	0	1018	38	21	
13	0	0	0	0	941	472	0	1018	38	21	
14	0	0	0	0	903	492	0	1018	38	21	
15	0	0	0	0	895	516	0	1018	38	21	
0	0	0	0	0	665	531	0	1018	38	21	
1	0	0	0	0	425	537	0	1018	38	21	
2	0	0	0	0	392	536	0	1018	38	21	
3	0	0	0	0	435	537	0	1018	38	21	
4	0	0	0	0	430	536	0	151	38	21	
5	0	0	0	0	437	538	0	0	38	21	
6	0	0	0	0	441	540	0	0	38	21	
7	0	0	0	0	444	539	0	0	38	21	
8	0	0	0	0	408	536	0	0	38	21	
9	0	0	0	0	416	532	0	0	38	21	
10	0	0	0	0	254	522	0	0	38	21	
11	0	0	0	0	89	501	0	0	38	21	
12	0	0	0	0	191	480	0	0	38	21	
13	0	0	0	0	359	462	0	0	38	21	
14	0	0	0	0	590	456	0	1018	38	21	
15	0	0	0	0	682	457	0	1018	38	21	
0	0	0	0	0	698	462	0	1018	38	21	
1	0	0	0	0	940	476	0	1018	38	21	
2	0	0	0	0	894	494	0	1018	38	21	
3	0	0	0	0	886	514	0	1018	38	21	
4	0	0	0	0	665	529	0	1018	38	21	
5	0	0	0	0	426	535	0	1018	38	21	
6	0	0	0	0	397	533	0	1018	38	21	
7	0	0	0	0	438	535	0	1018	38	21	
8	0	0	0	0	433	535	0	0	38	21	
9	0	0	0	0	443	537	0	0	38	21	
10	0	0	0	0	447	537	0	0	37	21	
11	0	0	0	0	438	535	0	0	38	21	
12	0	0	0	0	406	532	0	0	38	21	
13	0	0	0	0	425	527	0	0	38	21	
14	0	0	0	0	259	519	0	0	38	21	
15	0	0	0	0	86	499	0	0	38	21	
0	0	0	0	0	181	477	0	0	38	21	
1	0	0	0	0	352	460	0	0	38	21	
2	0	0	0	0	590	454	0	1018	38	21	
3	0	0	0	0	694	455	0	1018	38	21	
4	0	0	0	0	689	457	0	1018	38	21	
5	0	0	0	0	936	472	0	1018	38	21	
6	0	0	0	0	906	492	0	1018	38	21	
7	0	0	0	0	889	515	0	1018	38	21	
8	0	0	0	0	672	529	0	1018	38	21	
9	0	0	0	0	425	535	0	1018	38	21	
10	0	0	0	0	396	532	0	1018	38	21	
11	0	0	0	0	429	534	0	1018	38	21	
12	0	0	0	0	428	533	0	0	38	21	
13	0	0	0	0	439	534	0	0	38	21	
14	0	0	0	0	444	536	0	0	38	21	
15	0	0	0	0	444	535	0	0	38	21	
0	0	0	0	0	404	531	0	0	38	21	
1	0	0	0	0	416	530	0	0	38	21	
2	0	0	0	0	260	519	0	0	37	21	
3	0	0	0	0	99	500	0	0	38	21	
4	0	0	0	0	191	478	0	0	38	21	
5	0	0	0	0	354	462	0	0	38	21	
6	0	0	0	0	583	456	0	1018	38	21	
7	0	0	0	0	682	455	0	1018	38	21	
8	0	0	0	0	692	458	0	1018	38	21	
9	0	0	0	0	935	474	0	1018	38	21	
10	0	0	0	0	897	491	0	1018	38	21	
11	0	0	0	0	893	512	0	1018	38	21	
12	0	0	0	0	673	529	0	1018	38	21	
13	0	0	0	0	433	535	0	1018	38	21	
14	0	0	0	0	394	536	0	1018	38	21	
15	0	0	0	0	438	536	0	1018	38	21	
0	0	0	0	0	433	535	0	0	38	21	
1	0	0	0	0	442	536	0	0	38	21	
2	0	0	0	0	447	537	0	0	38	21	
3	0	0	0	0	440	537	0	0	38	21	
4	0	0	0	0	405	535	0	0	38	21	
5	0	0	0	0	414	533	0	0	38	21	
6	0	0	0	0	268	524	0	0	38	21	
7	0	0	0	0	91	503	0	0	38	21	
8	0	0	0	0	189	480	0	0	38	21	
9	0	0	0	0	350	463	0	0	38	21	
10	0	0	0	0	584	459	0	1018	38	21	
11	0	0	0	0	675	459	0	1018	38	21	
12	0	0	0	0	689	462	0	1018	38	21	
13	0	0	0	0	935	478	0	1018	38	21	
14	0	0	0	0	898	497	0	1018	38	21	
15	0	0	0	0	896	519	0	1018	38	21	
0	0	0	0	0	675	534	0	1018	38	21	
1	0	0	0	0	428	539	0	1018	38	21	
2	0	0	0	0	396	539	0	1018	38	21	
3	0	0	0	0	432	540	0	1018	38	21	
4	0	0	0	0	426	540	0	0	38	21	
5	0	0	0	0	446	540	0	0	38	21	
6	0	0	0	0	440	540	0	0	38	21	
7	0	0	0	0	447	535	0	0	38	21	
8	0	0	0	0	406	532	0	0	38	21	
9	0	0	0	0	423	531	0	0	38	21	
10	0	0	0	0	262	522	0	0	38	21	
11	0	0	0	0	92	502	0	0	38	21	
12	0	0	0	0	185	478	0	0	38	21	
13	0	0	0	0	349	461	0	0	38	21	
14	0	0	0	0	588	455	0	1018	38	21	
15	0	0	0	0	682	456	0	1018	38	21	
0	0	0	0	0	694	460	0	1018	38	21	
1	0	0	0	0	937	475	0	1018	38	21	
2	0	0	0	0	892	494	0	1018	38	21	
3	0	0	0	0	894	515	0	1018	38	21	
4	0	0	0	0	676	531	0	1018	38	21	
5	0	0	0	0	435	537	0	1018	38	21	
6	0	0	0	0	388	537	0	1018	38	21	
7	0	0	0	0	425	537	0	427	38	21	
8	0	0	0	0	427	537	0	0	38	21	
9	0	0	0	0	448	538	0	0	38	21	
10	0	0	0	0	444	537	0	0	38	21	
11	0	0	0	0	447	535	0	0	38	21	
12	0	0	0	0	406	532	0	0	38	21	
13	0	0	0	0	417	531	0	0	38	21	
14	0	0	0	0	267	524	0	0	38	21	
15	0	0	0	0	92	502	0	0	38	21	
0	0	0	0	0	186	480	0	0	38	21	
1	0	0	0	0	344	463	0	0	38	21	
2	0	0	0	0	580	458	0	1018	38	21	
3	0	0	0	0	690	458	0	1018	38	21	
4	0	0	0	0	696	460	0	1018	38	21	
5	0	0	0	0	935	475	0	1018	38	21	
6	0	0	0	0	898	494	0	1018	38	21	
7	0	0	0	0	893	515	0	1018	38	21	
8	0	0	0	0	672	532	0	1018	38	21	
9	0	0	0	0	428	539	0	1018	38	21	
10	0	0	0	0	393	537	0	1018	38	21	
11	0	0	0	0	433	537	0	1018	38	21	
12	0	0	0	0	432	535	0	0	38	21	
13	0	0	0	0	440	535	0	0	38	21	
14	0	0	0	0	450	538	0	0	38	21	
15	0	0	0	0	444	536	0	0	38	21	
0	0	0	0	0	411	534	0	0	38	21	
1	0	0	0	0	423	531	0	0	38	21	
2	0	0	0	0	273	524	0	0	37	21	
3	0	0	0	0	87	505	0	0	38	21	
4	0	0	0	0	186	480	0	0	38	21	
5	0	0	0	0	343	462	0	0	38	21	
6	0	0	0	0	577	454	0	1018	38	21	
7	0	0	0	0	679	454	0	1018	38	21	
8	0	0	0	0	690	456	0	1018	38	21	
9	0	0	0	0	934	472	0	1018	38	21	
10	0	0	0	0	901	491	0	1018	38	21	
11	0	0	0	0	894	513	0	1018	38	21	
12	0	0	0	0	672	530	0	1018	38	21	
13	0	0	0	0	438	534	0	1018	38	21	
14	0	0	0	0	395	533	0	1018	38	21	
15	0	0	0	0	433	534	0	706	38	21	
0	0	0	0	0	437	535	0	0	38	21	
1	0	0	0	0	440	536	0	0	38	21	
2	0	0	0	0	440	536	0	0	38	21	
3	0	0	0	0	444	534	0	0	38	21	
4	0	0	0	0	405	531	0	0	38	21	
5	0	0	0	0	415	529	0	0	38	21	
6	0	0	0	0	276	521	0	0	38	21	
7	0	0	0	0	97	500	0	0	38	21	
8	0	0	0	0	178	477	0	0	38	21	
9	0	0	0	0	336	461	0	0	38	21	
10	0	0	0	0	581	454	0	1018	38	21	
11	0	0	0	0	678	454	0	1018	38	21	
12	0	0	0	0	694	457	0	1018	38	21	
13	0	0	0	0	927	474	0	1018	38	21	
14	0	0	0	0	897	494	0	1018	38	21	
15	0	0	0	0	897	516	0	1018	38	21	
0	0	0	0	0	679	533	0	1018	38	21	
1	0	0	0	0	440	537	0	1018	38	21	
2	0	0	0	0	395	536	0	1018	37	21	
3	0	0	0	0	431	537	0	785	38	21	
4	0	0	0	0	440	534	0	0	38	21	
5	0	0	0	0	440	536	0	0	38	21	
6	0	0	0	0	444	538	0	0	38	21	
7	0	0	0	0	440	535	0	0	38	21	
8	0	0	0	0	409	530	0	0	38	21	
9	0	0	0	0	420	529	0	0	38	21	
10	0	0	0	0	275	523	0	0	38	21	
11	0	0	0	0	87	502	0	0	38	21	
12	0	0	0	0	172	481	0	0	38	21	
13	0	0	0	0	335	465	0	0	38	21	
14	0	0	0	0	576	458	0	1018	38	21	
15	0	0	0	0	679	459	0	1018	38	21	
0	0	0	0	0	691	461	0	1018	38	21	
1	0	0	0	0	933	475	0	1018	38	21	
2	0	0	0	0	903	493	0	1018	38	21	
3	0	0	0	0	891	515	0	1018	38	21	
4	0	0	0	0	681	531	0	1018	38	21	
5	0	0	0	0	434	537	0	1018	38	21	
6	0	0	0	0	389	537	0	1018	38	21	
7	0	0	0	0	438	538	0	1018	38	21	
8	0	0	0	0	429	539	0	0	38	21	
9	0	0	0	0	446	539	0	0	38	21	
10	0	0	0	0	440	540	0	0	38	21	
11	0	0	0	0	447	539	0	0	38	21	
12	0	0	0	0	411	534	0	0	38	21	
13	0	0	0	0	416	531	0	0	38	21	
14	0	0	0	0	272	521	0	0	38	21	
15	0	0	0	0	85	502	0	0	38	21	
0	0	0	0	0	173	481	0	0	38	21	
1	0	0	0	0	335	461	0	0	38	21	
2	0	0	0	0	579	454	0	1018	38	21	
3	0	0	0	0	681	455	0	1018	38	21	
4	0	0	0	0	697	456	0	1018	38	21	
5	0	0	0	0	932	469	0	1018	38	21	
6	0	0	0	0	898	488	0	1018	38	21	
7	0	0	0	0	893	513	0	1018	38	21	
8	0	0	0	0	682	531	0	1018	38	21	
9	0	0	0	0	437	535	0	1018	38	21	
10	0	0	0	0	388	534	0	1018	38	21	
11	0	0	0	0	429	535	0	1018	38	21	
12	0	0	0	0	435	535	0	0	38	21	
13	0	0	0	0	440	535	0	0	38	21	
14	0	0	0	0	446	535	0	0	38	21	
15	0	0	0	0	443	532	0	0	38	21	
0	0	0	0	0	409	532	0	0	38	21	
1	0	0	0	0	417	528	0	0	38	21	
2	0	0	0	0	280	521	0	0	38	21	
3	0	0	0	0	82	502	0	0	38	21	
4	0	0	0	0	176	478	0	0	38	21	
5	0	0	0	0	333	461	0	0	38	21	
6	0	0	0	0	575	454	0	1018	38	21	
7	0	0	0	0	683	455	0	1018	38	21	
8	0	0	0	0	694	459	0	1018	38	21	
9	0	0	0	0	929	472	0	1018	38	21	
10	0	0	0	0	903	491	0	1018	38	21	
11	0	0	0	0	892	515	0	1018	38	21	
12	0	0	0	0	685	531	0	1018	38	21	
13	0	0	0	0	444	539	0	1018	38	21	
14	0	0	0	0	387	538	0	1018	38	21	
15	0	0	0	0	426	538	0	1018	38	21	
0	0	0	0	0	427	537	0	0	38	21	
1	0	0	0	0	440	537	0	0	38	21	
2	0	0	0	0	457	537	0	0	38	21	
3	0	0	0	0	437	536	0	0	38	21	
4	0	0	0	0	408	534	0	0	38	21	
5	0	0	0	0	421	530	0	0	38	21	
6	0	0	0	0	284	524	0	0	38	21	
7	0	0	0	0	78	503	0	0	38	21	
8	0	0	0	0	176	480	0	0	38	21	
9	0	0	0	0	331	461	0	0	38	21	
10	0	0	0	0	576	455	0	1018	38	21	
11	0	0	0	0	680	456	0	1018	38	21	
12	0	0	0	0	691	457	0	1018	38	21	
13	0	0	0	0	933	471	0	1018	38	21	
14	0	0	0	0	902	490	0	1018	38	21	
15	0	0	0	0	893	512	0	1018	38	21	
0	0	0	0	0	688	529	0	1018	38	21	
1	0	0	0	0	450	534	0	1018	38	21	
2	0	0	0	0	388	533	0	1018	38	21	
3	0	0	0	0	436	534	0	853	38	21	
4	0	0	0	0	430	532	0	0	38	21	
5	0	0	0	0	444	533	0	0	38	21	
6	0	0	0	0	451	536	0	0	38	21	
7	0	0	0	0	444	536	0	0	38	21	
8	0	0	0	0	405	533	0	0	38	21	
9	0	0	0	0	415	530	0	0	38	21	
10	0	0	0	0	288	523	0	0	37	21	
11	0	0	0	0	83	502	0	0	38	21	
12	0	0	0	0	175	478	0	0	38	21	
13	0	0	0	0	327	461	0	0	38	21	
14	0	0	0	0	574	457	0	1018	38	21	
15	0	0	0	0	678	458	0	1018	38	21	
0	0	0	0	0	688	462	0	1018	38	21	
1	0	0	0	0	921	475	0	1018	38	21	
2	0	0	0	0	900	492	0	1018	38	21	
3	0	0	0	0	899	514	0	1018	38	21	
4	0	0	0	0	684	530	0	1018	38	21	
5	0	0	0	0	457	536	0	1018	38	21	
6	0	0	0	0	394	535	0	1018	38	21	
7	0	0	0	0	427	535	0	410	38	21	
8	0	0	0	0	429	534	0	0	38	21	
9	0	0	0	0	437	536	0	0	38	21	
10	0	0	0	0	445	537	0	0	38	21	
11	0	0	0	0	446	536	0	0	38	21	
12	0	0	0	0	409	534	0	0	38	21	
13	0	0	0	0	412	531	0	0	38	21	
14	0	0	0	0	282	524	0	0	38	21	
15	0	0	0	0	90	503	0	0	38	21	
0	0	0	0	0	177	479	0	0	38	21	
1	0	0	0	0	329	463	0	0	38	21	
2	0	0	0	0	570	455	0	1018	38	21	
3	0	0	0	0	675	456	0	1018	38	21	
4	0	0	0	0	690	459	0	1018	38	21	
5	0	0	0	0	926	472	0	1018	38	21	
6	0	0	0	0	900	493	0	1018	38	21	
7	0	0	0	0	894	514	0	1018	38	21	
8	0	0	0	0	689	531	0	1018	38	21	
9	0	0	0	0	455	536	0	1018	38	21	
10	0	0	0	0	388	533	0	1018	38	21	
11	0	0	0	0	432	534	0	582	38	21	
12	0	0	0	0	426	534	0	0	38	21	
13	0	0	0	0	442	535	0	0	38	21	
14	0	0	0	0	447	536	0	0	38	21	
15	0	0	0	0	441	534	0	0	38	21	
0	0	0	0	0	406	533	0	0	38	21	
1	0	0	0	0	417	529	0	0	38	21	
2	0	0	0	0	286	522	0	0	38	21	
3	0	0	0	0	87	502	0	0	38	21	
4	0	0	0	0	175	478	0	0	38	21	
5	0	0	0	0	325	459	0	0	38	21	
6	0	0	0	0	564	452	0	960	38	21	
7	0	0	0	0	679	454	0	1018	38	21	
8	0	0	0	0	699	455	0	1018	38	21	
9	0	0	0	0	923	470	0	1018	38	21	
10	0	0	0	0	902	489	0	1018	38	21	
11	0	0	0	0	900	512	0	1018	38	21	
12	0	0	0	0	684	529	0	1018	38	21	
13	0	0	0	0	452	534	0	1018	38	21	
14	0	0	0	0	392	535	0	1018	38	21	
15	0	0	0	0	424	533	0	735	38	21	
0	0	0	0	0	426	534	0	0	38	21	
1	0	0	0	0	441	534	0	0	38	21	
2	0	0	0	0	447	534	0	0	38	21	
3	0	0	0	0	448	532	0	0	38	21	
4	0	0	0	0	412	531	0	0	38	21	
5	0	0	0	0	420	529	0	0	38	21	
6	0	0	0	0	286	522	0	0	38	21	
7	0	0	0	0	88	503	0	0	38	21	
8	0	0	0	0	173	481	0	0	38	21	
9	0	0	0	0	318	462	0	0	38	21	
10	0	0	0	0	568	454	0	911	38	21	
11	0	0	0	0	684	455	0	1018	38	21	
12	0	0	0	0	690	458	0	1018	38	21	
13	0	0	0	0	917	472	0	1018	38	21	
14	0	0	0	0	894	492	0	1018	38	21	
15	0	0	0	0	897	512	0	1018	38	21	
0	0	0	0	0	692	529	0	1018	38	21	
1	0	0	0	0	451	536	0	1018	38	21	
2	0	0	0	0	398	535	0	1018	37	21	
3	0	0	0	0	428	535	0	213	38	21	
4	0	0	0	0	427	535	0	0	38	21	
5	0	0	0	0	445	536	0	0	38	21	
6	0	0	0	0	452	537	0	0	38	21	
7	0	0	0	0	439	535	0	0	38	21	
8	0	0	0	0	404	534	0	0	38	21	
9	0	0	0	0	419	530	0	0	38	21	
10	0	0	0	0	291	523	0	0	38	21	
11	0	0	0	0	92	502	0	0	38	21	
12	0	0	0	0	174	480	0	0	38	21	
13	0	0	0	0	318	461	0	0	38	21	
14	0	0	0	0	563	453	0	1018	38	21	
15	0	0	0	0	670	454	0	1018	38	21	
0	0	0	0	0	691	457	0	1018	38	21	
1	0	0	0	0	924	473	0	1018	38	21	
2	0	0	0	0	898	492	0	1018	38	21	
3	0	0	0	0	895	515	0	1018	38	21	
4	0	0	0	0	690	532	0	1018	38	21	
5	0	0	0	0	457	539	0	1018	38	21	
6	0	0	0	0	397	537	0	1018	38	21	
7	0	0	0	0	429	538	0	583	38	21	
8	0	0	0	0	427	538	0	0	38	21	
9	0	0	0	0	441	538	0	0	38	21	
10	0	0	0	0	443	538	0	0	38	21	
11	0	0	0	0	442	536	0	0	38	21	
12	0	0	0	0	401	535	0	0	38	21	
13	0	0	0	0	417	531	0	0	38	21	
14	0	0	0	0	299	523	0	0	38	21	
15	0	0	0	0	96	504	0	0	38	21	
0	0	0	0	0	171	481	0	0	38	21	
1	0	0	0	0	305	463	0	0	38	21	
2	0	0	0	0	560	455	0	718	38	21	
3	0	0	0	0	678	454	0	1018	38	21	
4	0	0	0	0	692	456	0	1018	38	21	
5	0	0	0	0	915	469	0	1018	38	21	
6	0	0	0	0	899	489	0	1018	38	21	
7	0	0	0	0	901	512	0	1018	38	21	
8	0	0	0	0	695	531	0	1018	38	21	
9	0	0	0	0	464	537	0	1018	38	21	
10	0	0	0	0	390	537	0	1018	38	21	
11	0	0	0	0	428	537	0	711	38	21	
12	0	0	0	0	420	537	0	0	38	21	
13	0	0	0	0	438	537	0	0	38	21	
14	0	0	0	0	448	538	0	0	38	21	
15	0	0	0	0	449	536	0	0	38	21	
0	0	0	0	0	406	532	0	0	38	21	
1	0	0	0	0	413	532	0	0	38	21	
2	0	0	0	0	297	526	0	0	38	21	
3	0	0	0	0	96	506	0	0	38	21	
4	0	0	0	0	172	484	0	0	38	21	
5	0	0	0	0	310	465	0	0	38	21	
6	0	0	0	0	567	457	0	475	38	21	
7	0	0	0	0	677	457	0	1018	38	21	
8	0	0	0	0	687	461	0	1018	38	21	
9	0	0	0	0	915	474	0	1018	38	21	
10	0	0	0	0	894	493	0	1018	38	21	
11	0	0	0	0	898	515	0	1018	38	21	
12	0	0	0	0	700	532	0	1018	38	21	
13	0	0	0	0	464	537	0	1018	38	21	
14	0	0	0	0	389	536	0	1018	38	21	
15	0	0	0	0	426	535	0	660	38	21	
0	0	0	0	0	426	535	0	0	38	21	
1	0	0	0	0	448	537	0	0	38	21	
2	0	0	0	0	446	537	0	0	38	21	
3	0	0	0	0	444	536	0	0	38	21	
4	0	0	0	0	404	533	0	0	38	21	
5	0	0	0	0	413	528	0	0	38	21	
6	0	0	0	0	308	521	0	0	38	21	
7	0	0	0	0	87	503	0	0	38	21	
8	0	0	0	0	165	480	0	0	38	21	
9	0	0	0	0	308	462	0	0	38	21	
10	0	0	0	0	567	454	0	712	38	21	
11	0	0	0	0	668	455	0	1018	38	21	
12	0	0	0	0	691	459	0	1018	38	21	
13	0	0	0	0	913	470	0	1018	38	21	
14	0	0	0	0	899	489	0	1018	38	21	
15	0	0	0	0	893	514	0	1018	38	21	
0	0	0	0	0	696	530	0	1018	38	21	
1	0	0	0	0	464	537	0	1018	38	21	
2	0	0	0	0	396	536	0	1018	38	21	
3	0	0	0	0	425	537	0	1018	38	21	
4	0	0	0	0	420	536	0	0	38	21	
5	0	0	0	0	449	537	0	0	38	21	
6	0	0	0	0	451	539	0	0	38	21	
7	0	0	0	0	440	536	0	0	38	21	
8	0	0	0	0	405	534	0	0	38	21	
9	0	0	0	0	414	531	0	0	38	21	
10	0	0	0	0	308	524	0	0	38	21	
11	0	0	0	0	94	503	0	0	38	21	
12	0	0	0	0	166	480	0	0	38	21	
13	0	0	0	0	308	463	0	0	38	21	
14	0	0	0	0	563	458	0	564	38	21	
15	0	0	0	0	678	459	0	1018	38	21	
0	0	0	0	0	694	462	0	1018	38	21	
1	0	0	0	0	911	478	0	1018	38	21	
2	0	0	0	0	888	496	0	1018	38	21	
3	0	0	0	0	894	518	0	1018	38	21	
4	0	0	0	0	695	536	0	1018	38	21	
5	0	0	0	0	472	540	0	1018	38	21	
6	0	0	0	0	390	538	0	1018	38	21	
7	0	0	0	0	433	538	0	573	38	21	
8	0	0	0	0	429	540	0	0	38	21	
9	0	0	0	0	443	540	0	0	38	21	
10	0	0	0	0	451	540	0	0	37	21	
11	0	0	0	0	437	537	0	0	38	21	
12	0	0	0	0	403	534	0	0	38	21	
13	0	0	0	0	422	531	0	0	38	21	
14	0	0	0	0	319	526	0	0	38	21	
15	0	0	0	0	96	505	0	0	38	21	
0	0	0	0	0	167	483	0	0	38	21	
1	0	0	0	0	303	466	0	0	38	21	
2	0	0	0	0	562	457	0	877	37	21	
3	0	0	0	0	676	457	0	1018	38	21	
4	0	0	0	0	691	461	0	1018	38	21	
5	0	0	0	0	901	473	0	1018	38	21	
6	0	0	0	0	896	492	0	1018	38	21	
7	0	0	0	0	889	515	0	1018	38	21	
8	0	0	0	0	705	532	0	1018	38	21	
9	0	0	0	0	478	538	0	1018	38	21	
10	0	0	0	0	388	536	0	1018	38	21	
11	0	0	0	0	433	534	0	501	38	21	
12	0	0	0	0	425	536	0	0	38	21	
13	0	0	0	0	437	536	0	0	38	21	
14	0	0	0	0	451	538	0	0	38	21	
15	0	0	0	0	437	538	0	0	38	21	
0	0	0	0	0	407	537	0	0	38	21	
1	0	0	0	0	408	533	0	0	38	21	
2	0	0	0	0	307	526	0	0	38	21	
3	0	0	0	0	103	504	0	0	38	21	
4	0	0	0	0	167	483	0	0	38	21	
5	0	0	0	0	310	465	0	0	38	21	
6	0	0	0	0	553	456	0	619	38	21	
7	0	0	0	0	673	456	0	1018	38	21	
8	0	0	0	0	690	460	0	1018	38	21	
9	0	0	0	0	904	473	0	1018	38	21	
10	0	0	0	0	899	492	0	1018	38	21	
11	0	0	0	0	901	515	0	1018	38	21	
12	0	0	0	0	705	530	0	1018	38	21	
13	0	0	0	0	471	535	0	1018	38	21	
14	0	0	0	0	388	535	0	1018	38	21	
15	0	0	0	0	428	536	0	1018	38	21	
0	0	0	0	0	430	535	0	0	38	21	
1	0	0	0	0	442	537	0	0	38	21	
2	0	0	0	0	449	536	0	0	38	21	
3	0	0	0	0	435	536	0	0	38	21	
4	0	0	0	0	402	531	0	0	38	21	
5	0	0	0	0	420	530	0	0	38	21	
6	0	0	0	0	312	523	0	0	38	21	
7	0	0	0	0	104	503	0	0	38	21	
8	0	0	0	0	164	480	0	0	38	21	
9	0	0	0	0	297	463	0	0	38	21	
10	0	0	0	0	555	456	0	479	38	21	
11	0	0	0	0	678	457	0	1018	38	21	
12	0	0	0	0	697	459	0	1018	38	21	
13	0	0	0	0	893	471	0	1018	38	21	
14	0	0	0	0	891	489	0	1018	38	21	
15	0	0	0	0	893	511	0	1018	38	21	
0	0	0	0	0	709	531	0	1018	38	21	
1	0	0	0	0	474	536	0	1018	38	21	
2	0	0	0	0	391	536	0	1018	38	21	
3	0	0	0	0	428	536	0	1018	38	21	
4	0	0	0	0	424	534	0	0	38	21	
5	0	0	0	0	446	533	0	0	38	21	
6	0	0	0	0	452	534	0	0	38	21	
7	0	0	0	0	440	533	0	0	38	21	
8	0	0	0	0	404	531	0	0	38	21	
9	0	0	0	0	417	528	0	0	38	21	
10	0	0	0	0	319	522	0	0	38	21	
11	0	0	0	0	102	501	0	0	38	21	
12	0	0	0	0	163	479	0	0	38	21	
13	0	0	0	0	299	461	0	0	38	21	
14	0	0	0	0	552	452	0	610	38	21	
15	0	0	0	0	671	455	0	1018	38	21	
0	0	0	0	0	692	457	0	1018	38	21	
1	0	0	0	0	902	469	0	1018	38	21	
2	0	0	0	0	894	489	0	1018	37	21	
3	0	0	0	0	884	510	0	1018	38	21	
4	0	0	0	0	707	527	0	1018	38	21	
5	0	0	0	0	474	535	0	1018	38	21	
6	0	0	0	0	391	533	0	1018	38	21	
7	0	0	0	0	432	534	0	1018	38	21	
8	0	0	0	0	427	534	0	0	38	21	
9	0	0	0	0	440	535	0	0	38	21	
10	0	0	0	0	452	536	0	0	38	21	
11	0	0	0	0	441	533	0	0	38	21	
12	0	0	0	0	409	530	0	0	38	21	
13	0	0	0	0	421	529	0	0	38	21	
14	0	0	0	0	319	523	0	0	38	21	
15	0	0	0	0	104	504	0	0	38	21	
0	0	0	0	0	168	479	0	0	38	21	
1	0	0	0	0	295	462	0	0	38	21	
2	0	0	0	0	551	456	0	683	38	21	
3	0	0	0	0	664	457	0	1018	38	21	
4	0	0	0	0	689	459	0	1018	38	21	
5	0	0	0	0	900	471	0	1018	38	21	
6	0	0	0	0	896	490	0	1018	38	21	
7	0	0	0	0	895	511	0	1018	38	21	
8	0	0	0	0	706	530	0	1018	38	21	
9	0	0	0	0	484	537	0	1018	38	21	
10	0	0	0	0	387	536	0	1018	38	21	
11	0	0	0	0	420	536	0	1018	38	21	
12	0	0	0	0	429	536	0	0	38	21	
13	0	0	0	0	445	537	0	0	38	21	
14	0	0	0	0	452	537	0	0	38	21	
15	0	0	0	0	440	533	0	0	38	21	
0	0	0	0	0	406	531	0	0	38	21	
1	0	0	0	0	421	526	0	0	38	21	
2	0	0	0	0	322	519	0	0	38	21	
3	0	0	0	0	107	501	0	0	38	21	
4	0	0	0	0	163	478	0	0	38	21	
5	0	0	0	0	291	460	0	0	38	21	
6	0	0	0	0	543	455	0	704	38	21	
7	0	0	0	0	671	455	0	1018	38	21	
8	0	0	0	0	687	459	0	1018	38	21	
9	0	0	0	0	897	472	0	1018	38	21	
10	0	0	0	0	894	491	0	1018	38	21	
11	0	0	0	0	894	513	0	1018	38	21	
12	0	0	0	0	711	532	0	1018	38	21	
13	0	0	0	0	492	539	0	1018	38	21	
14	0	0	0	0	387	536	0	1018	38	21	
15	0	0	0	0	424	536	0	706	38	21	
0	0	0	0	0	430	536	0	0	38	21	
1	0	0	0	0	441	536	0	0	38	21	
2	0	0	0	0	447	537	0	0	38	21	
3	0	0	0	0	433	537	0	0	38	21	
4	0	0	0	0	413	536	0	0	38	21	
5	0	0	0	0	423	532	0	0	38	21	
6	0	0	0	0	332	526	0	0	38	21	
7	0	0	0	0	101	505	0	0	38	21	
8	0	0	0	0	163	483	0	0	38	21	
9	0	0	0	0	296	464	0	0	38	21	
10	0	0	0	0	551	456	0	808	38	21	
11	0	0	0	0	668	456	0	1018	38	21	
12	0	0	0	0	688	458	0	1018	38	21	
13	0	0	0	0	891	471	0	1018	38	21	
14	0	0	0	0	897	491	0	1018	38	21	
15	0	0	0	0	890	511	0	1018	38	21	
0	0	0	0	0	719	528	0	1018	38	21	
1	0	0	0	0	484	535	0	1018	38	21	
2	0	0	0	0	390	536	0	1018	38	21	
3	0	0	0	0	419	537	0	1018	38	21	
4	0	0	0	0	425	537	0	0	38	21	
5	0	0	0	0	441	537	0	0	38	21	
6	0	0	0	0	452	536	0	0	38	21	
7	0	0	0	0	436	536	0	0	38	21	
8	0	0	0	0	403	535	0	0	38	21	
9	0	0	0	0	414	532	0	0	38	21	
10	0	0	0	0	338	526	0	0	38	21	
11	0	0	0	0	111	505	0	0	38	21	
12	0	0	0	0	160	484	0	0	38	21	
13	0	0	0	0	292	463	0	0	38	21	
14	0	0	0	0	553	455	0	635	38	21	
15	0	0	0	0	663	455	0	1018	38	21	
0	0	0	0	0	688	457	0	1018	38	21	
1	0	0	0	0	887	470	0	1018	38	21	
2	0	0	0	0	891	492	0	1018	38	21	
3	0	0	0	0	886	512	0	1018	38	21	
4	0	0	0	0	730	529	0	1018	38	21	
5	0	0	0	0	492	536	0	1018	38	21	
6	0	0	0	0	386	536	0	1018	38	21	
7	0	0	0	0	430	537	0	1018	38	21	
8	0	0	0	0	431	536	0	0	38	21	
9	0	0	0	0	439	536	0	0	38	21	
10	0	0	0	0	453	533	0	0	38	21	
11	0	0	0	0	434	533	0	0	38	21	
12	0	0	0	0	413	532	0	0	38	21	
13	0	0	0	0	423	528	0	0	38	21	
14	0	0	0	0	332	523	0	0	38	21	
15	0	0	0	0	101	504	0	0	38	21	
0	0	0	0	0	155	482	0	0	38	21	
1	0	0	0	0	286	463	0	0	38	21	
2	0	0	0	0	548	456	0	905	38	21	
3	0	0	0	0	667	455	0	1018	38	21	
4	0	0	0	0	690	460	0	1018	38	21	
5	0	0	0	0	886	471	0	1018	38	21	
6	0	0	0	0	894	489	0	1018	38	21	
7	0	0	0	0	892	511	0	1018	38	21	
8	0	0	0	0	729	529	0	1018	38	21	
9	0	0	0	0	490	536	0	1018	38	21	
10	0	0	0	0	390	536	0	1018	38	21	
11	0	0	0	0	427	535	0	760	38	21	
12	0	0	0	0	432	535	0	0	38	21	
13	0	0	0	0	447	536	0	0	38	21	
14	0	0	0	0	449	538	0	0	38	21	
15	0	0	0	0	438	535	0	0	38	21	
0	0	0	0	0	413	532	0	0	38	21	
1	0	0	0	0	417	528	0	0	38	21	
2	0	0	0	0	333	522	0	0	37	21	
3	0	0	0	0	104	503	0	0	38	21	
4	0	0	0	0	151	481	0	0	38	21	
5	0	0	0	0	278	463	0	0	38	21	
6	0	0	0	0	540	457	0	633	38	21	
7	0	0	0	0	672	455	0	1018	38	21	
8	0	0	0	0	689	457	0	1018	38	21	
9	0	0	0	0	895	469	0	1018	38	21	
10	0	0	0	0	902	489	0	1018	37	21	
11	0	0	0	0	897	510	0	1018	38	21	
12	0	0	0	0	723	527	0	1018	38	21	
13	0	0	0	0	494	534	0	1018	38	21	
14	0	0	0	0	390	534	0	1018	38	21	
15	0	0	0	0	428	536	0	1018	38	21	
0	0	0	0	0	436	536	0	0	38	21	
1	0	0	0	0	440	536	0	0	38	21	
2	0	0	0	0	445	536	0	0	37	21	
3	0	0	0	0	428	536	0	0	38	21	
4	0	0	0	0	403	532	0	0	38	21	
5	0	0	0	0	422	528	0	0	38	21	
6	0	0	0	0	339	523	0	0	38	21	
7	0	0	0	0	109	504	0	0	38	21	
8	0	0	0	0	148	483	0	0	38	21	
9	0	0	0	0	278	463	0	0	38	21	
10	0	0	0	0	544	455	0	648	37	21	
11	0	0	0	0	663	457	0	1018	38	21	
12	0	0	0	0	697	458	0	1018	38	21	
13	0	0	0	0	885	470	0	1018	38	21	
14	0	0	0	0	899	488	0	1018	38	21	
15	0	0	0	0	894	509	0	1018	38	21	
0	0	0	0	0	732	528	0	1018	38	21	
1	0	0	0	0	497	536	0	1018	38	21	
2	0	0	0	0	385	535	0	1018	37	21	
3	0	0	0	0	425	535	0	774	38	21	
4	0	0	0	0	427	534	0	0	38	21	
5	0	0	0	0	443	535	0	0	38	21	
6	0	0	0	0	447	535	0	0	38	21	
7	0	0	0	0	433	535	0	0	38	21	
8	0	0	0	0	411	534	0	0	38	21	
9	0	0	0	0	419	531	0	0	38	21	
10	0	0	0	0	345	525	0	0	37	21	
11	0	0	0	0	113	506	0	0	38	21	
12	0	0	0	0	157	483	0	0	38	21	
13	0	0	0	0	277	463	0	0	38	21	
14	0	0	0	0	542	455	0	785	38	21	
15	0	0	0	0	664	455	0	1018	38	21	
0	0	0	0	0	684	458	0	1018	38	21	
1	0	0	0	0	876	468	0	1018	38	21	
2	0	0	0	0	894	488	0	1018	37	21	
3	0	0	0	0	894	509	0	1018	38	21	
4	0	0	0	0	738	528	0	1018	38	21	
5	0	0	0	0	505	535	0	1018	38	21	
6	0	0	0	0	379	533	0	1018	38	21	
7	0	0	0	0	428	532	0	1018	38	21	
8	0	0	0	0	424	531	0	0	38	21	
9	0	0	0	0	436	535	0	0	38	21	
10	0	0	0	0	459	535	0	0	37	21	
11	0	0	0	0	432	531	0	0	38	21	
12	0	0	0	0	415	528	0	0	38	21	
13	0	0	0	0	415	525	0	0	38	21	
14	0	0	0	0	340	520	0	0	38	21	
15	0	0	0	0	115	503	0	0	38	21	
0	0	0	0	0	151	483	0	0	38	21	
1	0	0	0	0	270	464	0	0	38	21	
2	0	0	0	0	542	457	0	762	37	21	
3	0	0	0	0	664	457	0	1018	38	21	
4	0	0	0	0	692	462	0	1018	38	21	
5	0	0	0	0	876	472	0	1018	38	21	
6	0	0	0	0	894	490	0	1018	38	21	
7	0	0	0	0	900	513	0	1018	38	21	
8	0	0	0	0	734	531	0	1018	38	21	
9	0	0	0	0	510	538	0	1018	38	21	
10	0	0	0	0	393	537	0	1018	38	21	
11	0	0	0	0	422	536	0	1018	38	21	
12	0	0	0	0	429	536	0	0	38	21	
13	0	0	0	0	444	536	0	0	38	21	
14	0	0	0	0	455	537	0	0	38	21	
15	0	0	0	0	437	537	0	0	38	21	
0	0	0	0	0	408	533	0	0	38	21	
1	0	0	0	0	417	531	0	0	38	21	
2	0	0	0	0	353	526	0	0	38	21	
3	0	0	0	0	121	508	0	0	38	21	
4	0	0	0	0	148	484	0	0	38	21	
5	0	0	0	0	271	465	0	0	38	21	
6	0	0	0	0	534	457	0	653	38	21	
7	0	0	0	0	662	457	0	1018	38	21	
8	0	0	0	0	689	461	0	1018	38	21	
9	0	0	0	0	875	472	0	1018	38	20	
10	0	0	0	0	894	489	0	1018	38	20	
11	0	0	0	0	902	509	0	1018	38	20	
12	0	0	0	0	732	527	0	1018	38	21	
13	0	0	0	0	513	532	0	1018	38	20	
14	0	0	0	0	391	532	0	1018	38	20	
15	0	0	0	0	426	531	0	1018	38	20	
0	0	0	0	0	432	533	0	0	38	20	
1	0	0	0	0	442	534	0	0	38	20	
2	0	0	0	0	453	535	0	0	38	20	
3	0	0	0	0	438	532	0	0	38	20	
4	0	0	0	0	415	532	0	0	38	20	
5	0	0	0	0	415	528	0	0	38	20	
6	0	0	0	0	352	523	0	0	38	20	
7	0	0	0	0	114	505	0	0	38	20	
8	0	0	0	0	145	483	0	0	38	20	
9	0	0	0	0	270	466	0	0	38	20	
10	0	0	0	0	534	458	0	867	38	20	
11	0	0	0	0	659	458	0	1018	38	20	
12	0	0	0	0	688	462	0	1018	38	20	
13	0	0	0	0	869	471	0	1018	38	20	
14	0	0	0	0	896	488	0	1018	38	20	
15	0	0	0	0	892	509	0	1018	38	20	
0	0	0	0	0	744	528	0	1018	38	20	
1	0	0	0	0	513	536	0	1018	38	20	
2	0	0	0	0	391	535	0	1018	38	20	
3	0	0	0	0	422	535	0	1018	38	20	
4	0	0	0	0	430	535	0	0	38	20	
5	0	0	0	0	439	536	0	0	38	20	
6	0	0	0	0	448	536	0	0	38	20	
7	0	0	0	0	436	535	0	0	38	20	
8	0	0	0	0	409	533	0	0	38	20	
9	0	0	0	0	422	529	0	0	38	20	
10	0	0	0	0	359	524	0	0	38	20	
11	0	0	0	0	120	505	0	0	38	20	
12	0	0	0	0	149	484	0	0	38	20	
13	0	0	0	0	266	466	0	0	38	20	
14	0	0	0	0	533	459	0	730	38	20	
15	0	0	0	0	649	457	0	1018	38	20	
0	0	0	0	0	688	460	0	1018	38	20	
1	0	0	0	0	876	471	0	1018	38	20	
2	0	0	0	0	898	489	0	1018	37	20	
3	0	0	0	0	897	509	0	1018	38	20	
4	0	0	0	0	736	526	0	1018	38	20	
5	0	0	0	0	520	534	0	1018	38	20	
6	0	0	0	0	390	533	0	1018	38	20	
7	0	0	0	0	426	533	0	1018	38	20	
8	0	0	0	0	429	534	0	0	38	20	
9	0	0	0	0	448	533	0	0	38	20	
10	0	0	0	0	452	534	0	0	37	20	
11	0	0	0	0	429	533	0	0	38	20	
12	0	0	0	0	409	530	0	0	38	20	
13	0	0	0	0	415	528	0	0	38	20	
14	0	0	0	0	361	525	0	0	38	20	
15	0	0	0	0	125	507	0	0	38	20	
0	0	0	0	0	152	486	0	0	38	20	
1	0	0	0	0	268	468	0	0	38	20	
2	0	0	0	0	530	460	0	730	38	20	
3	0	0	0	0	649	460	0	1018	38	20	
4	0	0	0	0	687	462	0	1018	38	20	
5	0	0	0	0	864	472	0	1018	38	20	
6	0	0	0	0	883	488	0	1018	38	20	
7	0	0	0	0	892	506	0	1018	38	20	
8	0	0	0	0	744	525	0	1018	38	20	
9	0	0	0	0	519	534	0	1018	38	20	
10	0	0	0	0	394	534	0	1018	38	20	
11	0	0	0	0	428	535	0	1018	38	20	
12	0	0	0	0	440	533	0	0	38	20	
13	0	0	0	0	450	533	0	0	38	20	
14	0	0	0	0	454	532	0	0	38	20	
15	0	0	0	0	430	532	0	0	38	20	
0	0	0	0	0	407	530	0	0	38	20	
1	0	0	0	0	413	527	0	0	38	20	
2	0	0	0	0	363	524	0	0	38	20	
3	0	0	0	0	125	507	0	0	38	20	
4	0	0	0	0	147	485	0	0	38	20	
5	0	0	0	0	268	467	0	0	38	20	
6	0	0	0	0	532	459	0	665	38	20	
7	0	0	0	0	656	459	0	1018	38	20	
8	0	0	0	0	685	461	0	1018	38	20	
9	0	0	0	0	864	471	0	1018	38	20	
10	0	0	0	0	895	489	0	1018	38	20	
11	0	0	0	0	892	510	0	1018	38	20	
12	0	0	0	0	739	526	0	1018	38	20	
13	0	0	0	0	527	533	0	1018	38	20	
14	0	0	0	0	396	533	0	1018	38	20	
15	0	0	0	0	430	533	0	1018	38	20	
0	0	0	0	0	434	533	0	0	38	20	
1	0	0	0	0	450	533	0	0	38	20	
2	0	0	0	0	454	534	0	0	38	20	
3	0	0	0	0	429	534	0	0	38	20	
4	0	0	0	0	414	529	0	0	38	20	
5	0	0	0	0	421	526	0	0	38	20	
6	0	0	0	0	368	522	0	0	38	20	
7	0	0	0	0	132	505	0	0	38	20	
8	0	0	0	0	147	486	0	0	38	20	
9	0	0	0	0	266	468	0	0	38	20	
10	0	0	0	0	526	461	0	674	38	20	
11	0	0	0	0	644	458	0	1018	38	20	
12	0	0	0	0	684	462	0	1018	38	20	
13	0	0	0	0	851	472	0	1018	38	20	
14	0	0	0	0	885	488	0	1018	38	20	
15	0	0	0	0	895	507	0	1018	38	20	
0	0	0	0	0	740	522	0	1018	38	20	
1	0	0	0	0	529	531	0	1018	38	20	
2	0	0	0	0	397	532	0	1018	38	20	
3	0	0	0	0	438	532	0	1018	38	20	
4	0	0	0	0	435	534	0	0	38	20	
5	0	0	0	0	444	534	0	0	38	20	
6	0	0	0	0	457	532	0	0	38	20	
7	0	0	0	0	427	531	0	0	38	20	
8	0	0	0	0	415	529	0	0	38	20	
9	0	0	0	0	419	526	0	0	38	20	
10	0	0	0	0	367	521	0	0	38	20	
11	0	0	0	0	133	505	0	0	38	20	
12	0	0	0	0	156	486	0	0	38	20	
13	0	0	0	0	268	468	0	0	38	20	
14	0	0	0	0	519	462	0	712	38	20	
15	0	0	0	0	647	462	0	1018	38	20	
0	0	0	0	0	675	464	0	1018	38	20	
1	0	0	0	0	854	474	0	1018	38	20	
2	0	0	0	0	889	493	0	1018	38	20	
3	0	0	0	0	889	511	0	1018	38	20	
4	0	0	0	0	733	527	0	1018	38	20	
5	0	0	0	0	523	534	0	1018	38	20	
6	0	0	0	0	400	532	0	1018	38	20	
7	0	0	0	0	432	535	0	1018	38	20	
8	0	0	0	0	433	532	0	0	38	20	
9	0	0	0	0	450	534	0	0	38	20	
10	0	0	0	0	452	533	0	0	38	20	
11	0	0	0	0	435	531	0	0	38	20	
12	0	0	0	0	420	528	0	0	38	20	
13	0	0	0	0	417	525	0	0	38	20	
14	0	0	0	0	372	522	0	0	38	20	
15	0	0	0	0	137	508	0	0	38	20	
0	0	0	0	0	147	487	0	0	38	20	
1	0	0	0	0	263	469	0	0	38	20	
2	0	0	0	0	520	462	0	691	38	20	
3	0	0	0	0	656	460	0	1018	38	20	
4	0	0	0	0	680	463	0	1018	38	20	
5	0	0	0	0	850	472	0	1018	38	20	
6	0	0	0	0	892	490	0	1018	38	20	
7	0	0	0	0	885	509	0	1018	38	20	
8	0	0	0	0	739	526	0	1018	38	20	
9	0	0	0	0	535	532	0	1018	38	20	
10	0	0	0	0	397	532	0	1018	38	20	
11	0	0	0	0	436	535	0	1018	38	20	
12	0	0	0	0	436	535	0	0	38	20	
13	0	0	0	0	445	536	0	0	38	20	
14	0	0	0	0	462	535	0	0	38	20	
15	0	0	0	0	434	533	0	0	38	20	
0	0	0	0	0	412	531	0	0	38	20	
1	0	0	0	0	412	530	0	0	38	20	
2	0	0	0	0	372	526	0	0	37	20	
3	0	0	0	0	145	512	0	0	38	20	
4	0	0	0	0	154	492	0	0	38	20	
5	0	0	0	0	262	473	0	0	38	20	
6	0	0	0	0	521	465	0	736	38	20	
7	0	0	0	0	642	465	0	1018	38	20	
8	0	0	0	0	689	468	0	1018	38	20	
9	0	0	0	0	845	476	0	1018	38	20	
10	0	0	0	0	880	492	0	1018	37	20	
11	0	0	0	0	880	509	0	1018	38	20	
12	0	0	0	0	743	525	0	1018	38	20	
13	0	0	0	0	545	533	0	1018	38	20	
14	0	0	0	0	396	532	0	1018	38	20	
15	0	0	0	0	428	530	0	1018	38	20	
0	0	0	0	0	436	529	0	0	38	20	
1	0	0	0	0	446	530	0	0	38	20	
2	0	0	0	0	453	531	0	0	37	20	
3	0	0	0	0	427	530	0	0	38	20	
4	0	0	0	0	411	531	0	0	38	20	
5	0	0	0	0	425	529	0	0	38	20	
6	0	0	0	0	376	525	0	0	38	20	
7	0	0	0	0	147	508	0	0	38	20	
8	0	0	0	0	147	487	0	0	38	20	
9	0	0	0	0	263	470	0	0	38	20	
10	0	0	0	0	513	463	0	923	37	20	
11	0	0	0	0	646	464	0	1018	38	20	
12	0	0	0	0	678	467	0	1018	38	20	
13	0	0	0	0	837	477	0	1018	38	20	
14	0	0	0	0	895	492	0	1018	38	20	
15	0	0	0	0	880	510	0	1018	38	20	
0	0	0	0	0	749	528	0	1018	38	20	
1	0	0	0	0	530	534	0	1018	38	20	
2	0	0	0	0	394	533	0	1018	38	20	
3	0	0	0	0	439	532	0	1018	38	20	
4	0	0	0	0	439	531	0	0	38	20	
5	0	0	0	0	455	532	0	0	38	20	
6	0	0	0	0	462	532	0	0	38	20	
7	0	0	0	0	431	531	0	0	38	20	
8	0	0	0	0	409	529	0	0	38	20	
9	0	0	0	0	416	526	0	0	38	20	
10	0	0	0	0	385	523	0	0	38	20	
11	0	0	0	0	153	507	0	0	38	20	
12	0	0	0	0	152	487	0	0	38	20	
13	0	0	0	0	268	471	0	0	38	20	
14	0	0	0	0	521	465	0	561	38	20	
15	0	0	0	0	648	465	0	1018	38	20	
0	0	0	0	0	673	467	0	1018	38	20	
1	0	0	0	0	834	474	0	1018	38	20	
2	0	0	0	0	872	490	0	1018	38	20	
3	0	0	0	0	879	506	0	1018	38	20	
4	0	0	0	0	754	522	0	1018	38	20	
5	0	0	0	0	532	530	0	1018	38	20	
6	0	0	0	0	402	531	0	1018	38	20	
7	0	0	0	0	430	532	0	629	38	20	
8	0	0	0	0	439	531	0	0	38	20	
9	0	0	0	0	455	532	0	0	38	20	
10	0	0	0	0	458	533	0	0	38	20	
11	0	0	0	0	436	531	0	0	38	20	
12	0	0	0	0	416	531	0	0	38	20	
13	0	0	0	0	425	527	0	0	38	20	
14	0	0	0	0	376	523	0	0	38	19	
15	0	0	0	0	152	508	0	0	38	19	
0	0	0	0	0	152	489	0	0	38	19	
1	0	0	0	0	269	473	0	0	38	19	
2	0	0	0	0	511	465	0	0	38	19	
3	0	0	0	0	641	464	0	1018	38	19	
4	0	0	0	0	675	466	0	1018	38	19	
5	0	0	0	0	824	473	0	1018	38	19	
6	0	0	0	0	875	489	0	1018	38	19	
7	0	0	0	0	877	508	0	1018	38	19	
8	0	0	0	0	754	524	0	1018	38	19	
9	0	0	0	0	543	529	0	1018	38	19	
10	0	0	0	0	396	528	0	1018	38	19	
11	0	0	0	0	430	531	0	1018	38	19	
12	0	0	0	0	445	531	0	0	38	19	
13	0	0	0	0	454	531	0	0	38	19	
14	0	0	0	0	456	531	0	0	38	19	
15	0	0	0	0	431	530	0	0	38	19	
0	0	0	0	0	414	528	0	0	38	19	
1	0	0	0	0	425	526	0	0	38	19	
2	0	0	0	0	392	520	0	0	38	19	
3	0	0	0	0	160	504	0	0	38	19	
4	0	0	0	0	159	486	0	0	38	19	
5	0	0	0	0	258	470	0	0	38	19	
6	0	0	0	0	508	464	0	728	38	19	
7	0	0	0	0	643	464	0	1018	38	19	
8	0	0	0	0	660	468	0	1018	38	19	
9	0	0	0	0	825	475	0	1018	38	19	
10	0	0	0	0	880	492	0	1018	38	19	
11	0	0	0	0	871	508	0	1018	38	19	
12	0	0	0	0	743	522	0	1018	38	19	
13	0	0	0	0	545	527	0	1018	38	19	
14	0	0	0	0	402	527	0	1018	38	19	
15	0	0	0	0	438	527	0	1018	38	19	
0	0	0	0	0	442	528	0	0	38	19	
1	0	0	0	0	454	529	0	0	38	19	
2	0	0	0	0	465	530	0	0	38	19	
3	0	0	0	0	428	529	0	0	38	19	
4	0	0	0	0	418	529	0	0	38	19	
5	0	0	0	0	424	527	0	0	38	19	
6	0	0	0	0	393	522	0	0	38	19	
7	0	0	0	0	163	508	0	0	38	19	
8	0	0	0	0	153	487	0	0	38	19	
9	0	0	0	0	263	473	0	0	38	19	
10	0	0	0	0	516	466	0	735	38	19	
11	0	0	0	0	644	466	0	1018	38	19	
12	0	0	0	0	676	470	0	1018	38	19	
13	0	0	0	0	816	475	0	1018	38	19	
14	0	0	0	0	873	493	0	1018	38	19	
15	0	0	0	0	871	511	0	1018	38	19	
0	0	0	0	0	751	527	0	1018	38	19	
1	0	0	0	0	551	536	0	1018	38	19	
2	0	0	0	0	392	533	0	1018	37	19	
3	0	0	0	0	433	531	0	1018	38	19	
4	0	0	0	0	446	531	0	0	38	19	
5	0	0	0	0	449	533	0	0	38	19	
6	0	0	0	0	459	535	0	0	38	19	
7	0	0	0	0	425	531	0	0	38	19	
8	0	0	0	0	421	529	0	0	38	19	
9	0	0	0	0	420	527	0	0	38	19	
10	0	0	0	0	396	523	0	0	37	19	
11	0	0	0	0	164	508	0	0	38	19	
12	0	0	0	0	157	490	0	0	38	19	
13	0	0	0	0	270	475	0	0	38	19	
14	0	0	0	0	505	469	0	622	38	19	
15	0	0	0	0	641	470	0	1018	38	19	
0	0	0	0	0	670	473	0	1018	38	19	
1	0	0	0	0	811	480	0	1018	38	19	
2	0	0	0	0	871	494	0	1018	37	19	
3	0	0	0	0	865	508	0	1018	38	19	
4	0	0	0	0	754	523	0	1018	38	19	
5	0	0	0	0	546	531	0	1018	38	19	
6	0	0	0	0	405	531	0	1018	38	19	
7	0	0	0	0	437	531	0	1018	38	19	
8	0	0	0	0	441	531	0	0	38	19	
9	0	0	0	0	457	531	0	0	38	19	
10	0	0	0	0	458	530	0	0	37	19	
11	0	0	0	0	425	529	0	0	38	19	
12	0	0	0	0	414	528	0	0	38	19	
13	0	0	0	0	418	525	0	0	38	19	
14	0	0	0	0	400	520	0	0	38	19	
15	0	0	0	0	174	507	0	0	38	19	
0	0	0	0	0	157	487	0	0	38	19	
1	0	0	0	0	265	474	0	0	38	19	
2	0	0	0	0	501	467	0	534	37	19	
3	0	0	0	0	635	464	0	1018	38	19	
4	0	0	0	0	679	467	0	1018	38	19	
5	0	0	0	0	813	475	0	1018	38	19	
6	0	0	0	0	866	492	0	1018	38	19	
7	0	0	0	0	869	509	0	1018	38	19	
8	0	0	0	0	756	526	0	1018	38	19	
9	0	0	0	0	556	531	0	1018	38	19	
10	0	0	0	0	401	530	0	1018	37	19	
11	0	0	0	0	440	532	0	1018	38	19	
12	0	0	0	0	441	532	0	0	38	19	
13	0	0	0	0	456	533	0	0	38	19	
14	0	0	0	0	451	531	0	0	38	19	
15	0	0	0	0	427	528	0	0	38	19	
0	0	0	0	0	420	528	0	0	38	19	
1	0	0	0	0	424	526	0	0	38	19	
2	0	0	0	0	391	522	0	0	37	19	
3	0	0	0	0	180	509	0	0	38	19	
4	0	0	0	0	163	492	0	0	38	19	
5	0	0	0	0	263	476	0	0	38	19	
6	0	0	0	0	501	469	0	444	38	19	
7	0	0	0	0	640	468	0	1018	38	19	
8	0	0	0	0	668	470	0	1018	38	19	
9	0	0	0	0	804	475	0	1018	38	19	
10	0	0	0	0	875	490	0	1018	38	19	
11	0	0	0	0	869	504	0	1018	38	19	
12	0	0	0	0	751	518	0	1018	38	19	
13	0	0	0	0	547	526	0	1018	38	19	
14	0	0	0	0	401	524	0	1018	38	19	
15	0	0	0	0	436	526	0	1018	38	19	
0	0	0	0	0	445	525	0	153	38	19	
1	0	0	0	0	455	527	0	0	38	19	
2	0	0	0	0	466	527	0	0	38	19	
3	0	0	0	0	429	527	0	0	38	19	
4	0	0	0	0	415	526	0	0	38	19	
5	0	0	0	0	419	524	0	0	38	19	
6	0	0	0	0	395	521	0	0	38	19	
7	0	0	0	0	184	508	0	0	38	19	
8	0	0	0	0	153	491	0	0	38	19	
9	0	0	0	0	274	476	0	0	38	19	
10	0	0	0	0	501	468	0	923	38	19	
11	0	0	0	0	642	468	0	1018	38	19	
12	0	0	0	0	665	470	0	1018	38	19	
13	0	0	0	0	797	476	0	1018	38	19	
14	0	0	0	0	866	491	0	1018	38	19	
15	0	0	0	0	865	506	0	1018	38	19	
0	0	0	0	0	750	522	0	1018	38	19	
1	0	0	0	0	552	526	0	1018	38	19	
2	0	0	0	0	404	527	0	1018	38	19	
3	0	0	0	0	431	530	0	1018	38	19	
4	0	0	0	0	437	529	0	0	38	19	
5	0	0	0	0	459	529	0	0	38	19	
6	0	0	0	0	466	529	0	0	38	19	
7	0	0	0	0	428	527	0	0	38	19	
8	0	0	0	0	419	526	0	0	38	19	
9	0	0	0	0	423	523	0	0	38	19	
10	0	0	0	0	407	519	0	0	38	19	
11	0	0	0	0	188	508	0	0	38	19	
12	0	0	0	0	165	491	0	0	38	19	
13	0	0	0	0	268	476	0	0	38	19	
14	0	0	0	0	497	467	0	0	38	18	
15	0	0	0	0	635	468	0	1018	38	18	
0	0	0	0	0	670	469	0	1018	38	18	
1	0	0	0	0	803	478	0	1018	38	18	
2	0	0	0	0	863	493	0	1018	38	18	
3	0	0	0	0	857	509	0	1018	38	18	
4	0	0	0	0	749	522	0	1018	38	18	
5	0	0	0	0	554	528	0	1018	38	18	
6	0	0	0	0	394	526	0	1018	38	18	
7	0	0	0	0	438	527	0	225	38	18	
8	0	0	0	0	437	527	0	0	38	18	
9	0	0	0	0	449	529	0	0	38	18	
10	0	0	0	0	460	531	0	0	38	18	
11	0	0	0	0	431	529	0	0	38	18	
12	0	0	0	0	425	527	0	0	38	18	
13	0	0	0	0	425	526	0	0	38	18	
14	0	0	0	0	407	523	0	0	38	18	
15	0	0	0	0	193	511	0	0	38	18	
0	0	0	0	0	167	492	0	0	38	18	
1	0	0	0	0	270	475	0	0	38	18	
2	0	0	0	0	499	469	0	0	38	18	
3	0	0	0	0	635	469	0	1018	38	18	
4	0	0	0	0	665	473	0	1018	38	18	
5	0	0	0	0	794	480	0	1018	38	18	
6	0	0	0	0	853	494	0	1018	38	18	
7	0	0	0	0	865	509	0	1018	38	18	
8	0	0	0	0	755	524	0	1018	38	18	
9	0	0	0	0	557	529	0	1018	38	18	
10	0	0	0	0	408	527	0	1018	38	18	
11	0	0	0	0	441	528	0	237	38	18	
12	0	0	0	0	444	527	0	0	38	18	
13	0	0	0	0	454	527	0	0	38	18	
14	0	0	0	0	455	526	0	0	38	18	
15	0	0	0	0	427	526	0	0	38	18	
0	0	0	0	0	420	525	0	0	38	18	
1	0	0	0	0	419	522	0	0	38	18	
2	0	0	0	0	419	519	0	0	38	18	
3	0	0	0	0	195	506	0	0	38	18	
4	0	0	0	0	159	491	0	0	38	18	
5	0	0	0	0	263	476	0	0	38	18	
6	0	0	0	0	498	470	0	0	38	18	
7	0	0	0	0	633	470	0	1018	38	18	
8	0	0	0	0	668	471	0	1018	38	18	
9	0	0	0	0	787	479	0	1018	38	18	
10	0	0	0	0	870	492	0	1018	37	18	
11	0	0	0	0	860	506	0	1018	38	18	
12	0	0	0	0	759	523	0	1018	38	18	
13	0	0	0	0	556	529	0	1018	38	18	
14	0	0	0	0	403	527	0	1018	38	18	
15	0	0	0	0	435	528	0	413	38	18	
0	0	0	0	0	443	528	0	0	38	18	
1	0	0	0	0	458	528	0	0	38	18	
2	0	0	0	0	455	527	0	0	37	18	
3	0	0	0	0	424	523	0	0	38	18	
4	0	0	0	0	420	523	0	0	38	18	
5	0	0	0	0	417	521	0	0	38	18	
6	0	0	0	0	412	519	0	0	38	18	
7	0	0	0	0	196	504	0	0	38	18	
8	0	0	0	0	170	488	0	0	38	18	
9	0	0	0	0	272	475	0	0	38	18	
10	0	0	0	0	499	467	0	0	37	18	
11	0	0	0	0	633	470	0	1018	38	18	
12	0	0	0	0	672	472	0	1018	38	18	
13	0	0	0	0	792	476	0	1018	38	18	
14	0	0	0	0	859	492	0	1018	38	18	
15	0	0	0	0	862	507	0	1018	38	18	
0	0	0	0	0	761	520	0	1018	38	18	
1	0	0	0	0	557	527	0	1018	38	18	
2	0	0	0	0	399	528	0	1018	37	18	
3	0	0	0	0	435	528	0	1018	38	18	
4	0	0	0	0	443	527	0	0	38	18	
5	0	0	0	0	460	528	0	0	38	18	
6	0	0	0	0	453	528	0	0	38	18	
7	0	0	0	0	428	526	0	0	38	18	
8	0	0	0	0	417	524	0	0	38	18	
9	0	0	0	0	428	524	0	0	38	18	
10	0	0	0	0	422	519	0	0	37	18	
11	0	0	0	0	195	507	0	0	38	18	
12	0	0	0	0	165	489	0	0	38	18	
13	0	0	0	0	271	476	0	0	38	18	
14	0	0	0	0	492	471	0	0	38	18	
15	0	0	0	0	634	469	0	1018	38	18	
0	0	0	0	0	664	471	0	1018	38	18	
1	0	0	0	0	787	479	0	1018	38	18	
2	0	0	0	0	860	494	0	1018	37	18	
3	0	0	0	0	855	508	0	1018	38	18	
4	0	0	0	0	763	524	0	1018	38	18	
5	0	0	0	0	561	530	0	1018	38	18	
6	0	0	0	0	404	531	0	1018	38	18	
7	0	0	0	0	434	529	0	1018	38	18	
8	0	0	0	0	446	529	0	0	38	18	
9	0	0	0	0	452	529	0	0	38	18	
10	0	0	0	0	458	529	0	0	37	18	
11	0	0	0	0	431	528	0	0	38	18	
12	0	0	0	0	425	525	0	0	38	18	
13	0	0	0	0	428	522	0	0	38	18	
14	0	0	0	0	422	519	0	0	38	18	
15	0	0	0	0	201	509	0	0	38	18	
0	0	0	0	0	168	492	0	0	38	18	
1	0	0	0	0	275	477	0	0	38	18	
2	0	0	0	0	490	470	0	0	37	18	
3	0	0	0	0	627	467	0	1018	38	18	
4	0	0	0	0	666	471	0	1018	38	18	
5	0	0	0	0	782	477	0	1018	38	18	
6	0	0	0	0	858	492	0	1018	38	18	
7	0	0	0	0	857	506	0	1018	38	18	
8	0	0	0	0	757	519	0	1018	38	18	
9	0	0	0	0	560	525	0	1018	38	18	
10	0	0	0	0	402	525	0	1018	37	18	
11	0	0	0	0	431	527	0	1018	38	18	
12	0	0	0	0	441	529	0	0	38	18	
13	0	0	0	0	455	532	0	0	38	18	
14	0	0	0	0	455	531	0	0	38	18	
15	0	0	0	0	432	529	0	0	38	18	
0	0	0	0	0	430	528	0	0	38	18	
1	0	0	0	0	427	526	0	0	38	18	
2	0	0	0	0	419	521	0	0	37	18	
3	0	0	0	0	211	510	0	0	38	18	
4	0	0	0	0	179	492	0	0	38	18	
5	0	0	0	0	272	479	0	0	38	18	
6	0	0	0	0	488	473	0	350	38	18	
7	0	0	0	0	629	473	0	1018	38	18	
8	0	0	0	0	661	475	0	1018	38	18	
9	0	0	0	0	778	481	0	1018	38	18	
10	0	0	0	0	855	495	0	1018	37	18	
11	0	0	0	0	844	512	0	1018	38	18	
12	0	0	0	0	752	527	0	1018	38	18	
13	0	0	0	0	561	532	0	1018	38	18	
14	0	0	0	0	409	533	0	1018	38	18	
15	0	0	0	0	431	532	0	1018	38	18	
0	0	0	0	0	441	531	0	0	38	18	
1	0	0	0	0	459	530	0	0	38	18	
2	0	0	0	0	460	530	0	0	38	18	
3	0	0	0	0	427	528	0	0	38	18	
4	0	0	0	0	426	526	0	0	38	18	
5	0	0	0	0	425	522	0	0	38	18	
6	0	0	0	0	416	519	0	0	38	18	
7	0	0	0	0	215	508	0	0	38	18	
8	0	0	0	0	181	493	0	0	38	18	
9	0	0	0	0	272	480	0	0	38	18	
10	0	0	0	0	482	473	0	535	38	18	
11	0	0	0	0	631	473	0	1018	38	18	
12	0	0	0	0	667	474	0	1018	38	17	
13	0	0	0	0	768	481	0	1018	38	17	
14	0	0	0	0	850	495	0	1018	38	17	
15	0	0	0	0	853	509	0	1018	38	17	
0	0	0	0	0	755	521	0	1018	38	17	
1	0	0	0	0	560	529	0	1018	38	17	
2	0	0	0	0	414	527	0	1018	38	17	
3	0	0	0	0	435	527	0	1018	38	17	
4	0	0	0	0	440	527	0	172	38	17	
5	0	0	0	0	463	527	0	0	38	17	
6	0	0	0	0	459	528	0	0	38	17	
7	0	0	0	0	423	526	0	0	38	17	
8	0	0	0	0	426	526	0	0	38	17	
9	0	0	0	0	428	524	0	0	38	17	
10	0	0	0	0	418	521	0	0	37	17	
11	0	0	0	0	216	511	0	0	38	17	
12	0	0	0	0	190	495	0	0	38	17	
13	0	0	0	0	281	482	0	0	38	17	
14	0	0	0	0	485	476	0	393	38	17	
15	0	0	0	0	624	476	0	1018	38	17	
0	0	0	0	0	658	478	0	1018	38	17	
1	0	0	0	0	772	483	0	1018	38	17	
2	0	0	0	0	851	498	0	1018	37	17	
3	0	0	0	0	847	513	0	1018	38	17	
4	0	0	0	0	755	528	0	1018	38	17	
5	0	0	0	0	560	533	0	1018	38	17	
6	0	0	0	0	403	531	0	1018	38	17	
7	0	0	0	0	435	529	0	1018	38	17	
8	0	0	0	0	445	527	0	0	38	17	
9	0	0	0	0	464	529	0	0	38	17	
10	0	0	0	0	465	530	0	0	37	17	
11	0	0	0	0	428	528	0	0	38	17	
12	0	0	0	0	424	527	0	0	38	17	
13	0	0	0	0	423	525	0	0	38	17	
14	0	0	0	0	432	521	0	0	38	17	
15	0	0	0	0	227	510	0	0	38	17	
0	0	0	0	0	185	494	0	0	38	17	
1	0	0	0	0	279	481	0	0	38	17	
2	0	0	0	0	483	473	0	0	38	17	
3	0	0	0	0	623	474	0	1018	38	17	
4	0	0	0	0	656	475	0	1018	38	17	
5	0	0	0	0	761	480	0	1018	38	17	
6	0	0	0	0	845	492	0	1018	38	17	
7	0	0	0	0	841	506	0	1018	38	17	
8	0	0	0	0	757	520	0	1018	38	17	
9	0	0	0	0	568	527	0	1018	38	17	
10	0	0	0	0	412	527	0	1018	38	17	
11	0	0	0	0	431	528	0	1018	38	17	
12	0	0	0	0	442	528	0	86	38	17	
13	0	0	0	0	464	527	0	0	38	17	
14	0	0	0	0	460	527	0	0	38	17	
15	0	0	0	0	423	526	0	0	38	17	
0	0	0	0	0	424	524	0	0	38	17	
1	0	0	0	0	434	523	0	0	38	17	
2	0	0	0	0	428	521	0	0	38	17	
3	0	0	0	0	226	511	0	0	38	17	
4	0	0	0	0	184	495	0	0	38	17	
5	0	0	0	0	274	482	0	0	38	17	
6	0	0	0	0	481	475	0	0	38	17	
7	0	0	0	0	619	474	0	1018	38	17	
8	0	0	0	0	658	476	0	1018	38	17	
9	0	0	0	0	755	481	0	1018	38	17	
10	0	0	0	0	853	495	0	1018	38	17	
11	0	0	0	0	838	509	0	1018	38	17	
12	0	0	0	0	750	524	0	1018	38	17	
13	0	0	0	0	572	530	0	1018	38	17	
14	0	0	0	0	418	529	0	1018	38	17	
15	0	0	0	0	434	530	0	1018	38	17	
0	0	0	0	0	440	529	0	0	38	17	
1	0	0	0	0	458	529	0	0	38	17	
2	0	0	0	0	458	527	0	0	38	17	
3	0	0	0	0	438	526	0	0	38	17	
4	0	0	0	0	426	525	0	0	38	17	
5	0	0	0	0	427	522	0	0	38	17	
6	0	0	0	0	428	521	0	0	38	17	
7	0	0	0	0	239	511	0	0	38	17	
8	0	0	0	0	190	496	0	0	38	17	
9	0	0	0	0	268	484	0	0	38	17	
10	0	0	0	0	474	476	0	0	38	17	
11	0	0	0	0	622	476	0	1018	38	17	
12	0	0	0	0	658	477	0	1018	38	17	
13	0	0	0	0	749	484	0	1018	38	17	
14	0	0	0	0	847	496	0	1018	38	17	
15	0	0	0	0	838	509	0	1018	38	17	
0	0	0	0	0	760	522	0	1018	38	17	
1	0	0	0	0	575	527	0	1018	38	17	
2	0	0	0	0	414	527	0	1018	38	17	
3	0	0	0	0	428	526	0	1018	38	17	
4	0	0	0	0	450	526	0	0	38	17	
5	0	0	0	0	463	528	0	0	38	17	
6	0	0	0	0	462	527	0	0	38	17	
7	0	0	0	0	429	526	0	0	38	17	
8	0	0	0	0	425	524	0	0	38	17	
9	0	0	0	0	430	520	0	0	38	17	
10	0	0	0	0	429	518	0	0	38	17	
11	0	0	0	0	238	508	0	0	38	17	
12	0	0	0	0	179	492	0	0	38	17	
13	0	0	0	0	273	480	0	0	38	17	
14	0	0	0	0	474	473	0	0	38	17	
15	0	0	0	0	623	470	0	1018	38	17	
0	0	0	0	0	653	473	0	1018	38	17	
1	0	0	0	0	747	479	0	1018	38	17	
2	0	0	0	0	833	492	0	1018	38	17	
3	0	0	0	0	836	504	0	1018	38	17	
4	0	0	0	0	755	517	0	1018	38	17	
5	0	0	0	0	577	523	0	1018	38	17	
6	0	0	0	0	415	524	0	1018	38	17	
7	0	0	0	0	434	521	0	1018	38	17	
8	0	0	0	0	451	520	0	0	38	17	
9	0	0	0	0	461	523	0	0	38	17	
10	0	0	0	0	463	524	0	0	38	17	
11	0	0	0	0	428	524	0	0	38	17	
12	0	0	0	0	428	522	0	0	38	17	
13	0	0	0	0	436	519	0	0	38	17	
14	0	0	0	0	436	518	0	0	38	17	
15	0	0	0	0	240	510	0	0	38	17	
0	0	0	0	0	189	494	0	0	38	17	
1	0	0	0	0	279	481	0	0	38	17	
2	0	0	0	0	482	473	0	0	37	17	
3	0	0	0	0	612	473	0	1018	38	17	
4	0	0	0	0	658	477	0	1018	38	17	
5	0	0	0	0	749	481	0	1018	38	17	
6	0	0	0	0	840	494	0	1018	38	17	
7	0	0	0	0	846	508	0	1018	38	17	
8	0	0	0	0	759	519	0	1018	38	17	
9	0	0	0	0	571	525	0	1018	38	17	
10	0	0	0	0	411	523	0	1018	37	17	
11	0	0	0	0	436	522	0	1018	38	17	
12	0	0	0	0	447	524	0	0	38	17	
13	0	0	0	0	461	527	0	0	38	17	
14	0	0	0	0	458	527	0	0	38	17	
15	0	0	0	0	424	525	0	0	38	17	
0	0	0	0	0	434	524	0	0	38	17	
1	0	0	0	0	426	522	0	0	38	17	
2	0	0	0	0	440	521	0	0	37	17	
3	0	0	0	0	251	512	0	0	38	17	
4	0	0	0	0	186	496	0	0	38	17	
5	0	0	0	0	282	483	0	0	38	17	
6	0	0	0	0	473	475	0	0	38	17	
7	0	0	0	0	618	477	0	1018	38	17	
8	0	0	0	0	661	476	0	1018	38	17	
9	0	0	0	0	742	481	0	1018	38	17	
10	0	0	0	0	837	493	0	1018	37	17	
11	0	0	0	0	833	506	0	1018	38	17	
12	0	0	0	0	753	520	0	1018	38	17	
13	0	0	0	0	573	528	0	1018	38	17	
14	0	0	0	0	401	527	0	1018	38	17	
15	0	0	0	0	435	526	0	1018	38	17	
0	0	0	0	0	447	525	0	0	38	17	
1	0	0	0	0	459	527	0	0	38	17	
2	0	0	0	0	468	527	0	0	37	17	
3	0	0	0	0	429	525	0	0	38	17	
4	0	0	0	0	429	527	0	0	38	17	
5	0	0	0	0	433	524	0	0	38	17	
6	0	0	0	0	433	521	0	0	38	17	
7	0	0	0	0	243	513	0	0	38	17	
8	0	0	0	0	191	497	0	0	38	17	
9	0	0	0	0	275	485	0	0	38	17	
10	0	0	0	0	472	477	0	0	37	17	
11	0	0	0	0	607	478	0	1018	38	17	
12	0	0	0	0	656	479	0	1018	38	17	
13	0	0	0	0	747	483	0	1018	38	17	
14	0	0	0	0	839	495	0	1018	38	17	
15	0	0	0	0	840	509	0	1018	38	17	
0	0	0	0	0	762	520	0	1018	38	17	
1	0	0	0	0	567	527	0	1018	38	17	
2	0	0	0	0	412	525	0	1018	37	17	
3	0	0	0	0	433	527	0	1018	38	17	
4	0	0	0	0	451	526	0	0	38	17	
5	0	0	0	0	457	526	0	0	38	17	
6	0	0	0	0	460	526	0	0	38	17	
7	0	0	0	0	440	527	0	0	38	17	
8	0	0	0	0	427	525	0	0	38	17	
9	0	0	0	0	427	521	0	0	38	17	
10	0	0	0	0	436	519	0	0	37	17	
11	0	0	0	0	246	509	0	0	38	17	
12	0	0	0	0	191	493	0	0	38	17	
13	0	0	0	0	277	481	0	0	38	17	
14	0	0	0	0	471	473	0	0	38	17	
15	0	0	0	0	620	473	0	1018	38	17	
0	0	0	0	0	662	476	0	1018	38	17	
1	0	0	0	0	732	481	0	1018	38	17	
2	0	0	0	0	834	491	0	1018	37	17	
3	0	0	0	0	830	506	0	1018	38	17	
4	0	0	0	0	759	519	0	1018	38	17	
5	0	0	0	0	576	525	0	1018	38	17	
6	0	0	0	0	411	524	0	1018	38	17	
7	0	0	0	0	434	523	0	1018	38	17	
8	0	0	0	0	451	525	0	0	38	17	
9	0	0	0	0	462	527	0	0	38	17	
10	0	0	0	0	461	526	0	0	37	17	
11	0	0	0	0	433	525	0	0	38	17	
12	0	0	0	0	435	523	0	0	38	17	
13	0	0	0	0	428	520	0	0	38	17	
14	0	0	0	0	434	519	0	0	38	17	
15	0	0	0	0	248	508	0	0	38	17	
0	0	0	0	0	193	494	0	0	38	17	
1	0	0	0	0	285	482	0	0	38	17	
2	0	0	0	0	466	475	0	0	37	17	
3	0	0	0	0	609	477	0	1018	38	17	
4	0	0	0	0	654	480	0	1018	38	17	
5	0	0	0	0	732	485	0	1018	38	17	
6	0	0	0	0	846	496	0	1018	38	17	
7	0	0	0	0	845	509	0	1018	38	17	
8	0	0	0	0	769	522	0	1018	38	17	
9	0	0	0	0	577	528	0	1018	38	17	
10	0	0	0	0	413	526	0	1018	37	17	
11	0	0	0	0	433	525	0	1018	38	17	
12	0	0	0	0	446	524	0	0	38	17	
13	0	0	0	0	460	524	0	0	38	17	
14	0	0	0	0	459	524	0	0	38	17	
15	0	0	0	0	432	524	0	0	38	17	
0	0	0	0	0	427	523	0	0	38	17	
1	0	0	0	0	427	520	0	0	38	17	
2	0	0	0	0	438	519	0	0	37	17	
3	0	0	0	0	256	509	0	0	38	17	
4	0	0	0	0	188	494	0	0	38	17	
5	0	0	0	0	277	483	0	0	38	17	
6	0	0	0	0	466	474	0	0	38	17	
7	0	0	0	0	615	475	0	1018	38	17	
8	0	0	0	0	659	477	0	1018	38	17	
9	0	0	0	0	735	481	0	1018	38	17	
10	0	0	0	0	837	494	0	1018	38	17	
11	0	0	0	0	832	506	0	1018	38	17	
12	0	0	0	0	764	519	0	1018	38	17	
13	0	0	0	0	574	525	0	1018	38	17	
14	0	0	0	0	407	524	0	1018	38	17	
15	0	0	0	0	437	524	0	1018	38	17	
0	0	0	0	0	443	525	0	0	38	17	
1	0	0	0	0	472	525	0	0	38	16	
2	0	0	0	0	464	524	0	0	37	16	
3	0	0	0	0	432	524	0	0	38	16	
4	0	0	0	0	435	523	0	0	38	16	
5	0	0	0	0	430	522	0	0	38	16	
6	0	0	0	0	433	519	0	0	38	16	
7	0	0	0	0	256	510	0	0	38	16	
8	0	0	0	0	187	494	0	0	38	16	
9	0	0	0	0	281	482	0	0	38	16	
10	0	0	0	0	471	476	0	0	37	16	
11	0	0	0	0	609	473	0	1018	38	16	
12	0	0	0	0	660	476	0	1018	38	16	
13	0	0	0	0	731	480	0	1018	38	16	
14	0	0	0	0	829	492	0	1018	38	16	
15	0	0	0	0	831	506	0	1018	38	16	
0	0	0	0	0	768	520	0	1018	38	16	
1	0	0	0	0	575	526	0	1018	38	16	
2	0	0	0	0	412	525	0	1018	37	16	
3	0	0	0	0	436	523	0	1018	38	16	
4	0	0	0	0	451	523	0	0	38	16	
5	0	0	0	0	457	522	0	0	38	16	
6	0	0	0	0	462	523	0	0	38	16	
7	0	0	0	0	436	522	0	0	38	16	
8	0	0	0	0	440	523	0	0	38	16	
9	0	0	0	0	436	519	0	0	38	16	
10	0	0	0	0	442	516	0	0	37	16	
11	0	0	0	0	263	507	0	0	38	16	
12	0	0	0	0	189	494	0	0	38	16	
13	0	0	0	0	277	483	0	0	38	16	
14	0	0	0	0	462	477	0	0	38	16	
15	0	0	0	0	608	476	0	1018	38	16	
0	0	0	0	0	652	480	0	1018	38	16	
1	0	0	0	0	729	484	0	1018	38	16	
2	0	0	0	0	838	496	0	1018	37	16	
3	0	0	0	0	828	508	0	1018	38	16	
4	0	0	0	0	765	519	0	1018	38	16	
5	0	0	0	0	583	527	0	1018	38	16	
6	0	0	0	0	419	527	0	1018	38	16	
7	0	0	0	0	440	527	0	1018	38	16	
8	0	0	0	0	442	526	0	0	38	16	
9	0	0	0	0	462	526	0	0	38	16	
10	0	0	0	0	456	524	0	0	37	16	
11	0	0	0	0	435	524	0	0	38	16	
12	0	0	0	0	428	525	0	0	38	16	
13	0	0	0	0	429	522	0	0	38	16	
14	0	0	0	0	442	520	0	0	38	16	
15	0	0	0	0	259	510	0	0	38	16	
0	0	0	0	0	189	494	0	0	38	16	
1	0	0	0	0	279	481	0	0	38	16	
2	0	0	0	0	463	474	0	0	37	16	
3	0	0	0	0	606	472	0	1018	38	16	
4	0	0	0	0	648	473	0	1018	38	16	
5	0	0	0	0	728	479	0	1018	38	16	
6	0	0	0	0	837	493	0	1018	38	16	
7	0	0	0	0	828	505	0	1018	38	16	
8	0	0	0	0	771	519	0	1018	38	16	
9	0	0	0	0	577	526	0	1018	38	16	
10	0	0	0	0	408	526	0	1018	37	16	
11	0	0	0	0	440	525	0	1018	38	16	
12	0	0	0	0	455	525	0	0	38	16	
13	0	0	0	0	459	524	0	0	38	16	
14	0	0	0	0	467	524	0	0	38	16	
15	0	0	0	0	436	524	0	0	38	16	
0	0	0	0	0	435	522	0	0	38	16	
1	0	0	0	0	437	520	0	0	38	16	
2	0	0	0	0	442	518	0	0	37	16	
3	0	0	0	0	260	512	0	0	38	16	
4	0	0	0	0	193	496	0	0	38	16	
5	0	0	0	0	272	484	0	0	38	16	
6	0	0	0	0	455	477	0	0	38	16	
7	0	0	0	0	608	477	0	1018	38	16	
8	0	0	0	0	652	477	0	1018	38	16	
9	0	0	0	0	732	482	0	1018	38	16	
10	0	0	0	0	840	493	0	1018	37	16	
11	0	0	0	0	830	506	0	1018	38	16	
12	0	0	0	0	769	519	0	1018	38	16	
13	0	0	0	0	577	525	0	1018	38	16	
14	0	0	0	0	412	526	0	1018	38	16	
15	0	0	0	0	438	526	0	1018	38	16	
0	0	0	0	0	444	527	0	0	38	16	
1	0	0	0	0	467	528	0	0	38	16	
2	0	0	0	0	467	529	0	0	37	16	
3	0	0	0	0	438	526	0	0	38	16	
4	0	0	0	0	436	524	0	0	38	16	
5	0	0	0	0	432	524	0	0	38	16	
6	0	0	0	0	440	522	0	0	38	16	
7	0	0	0	0	268	513	0	0	38	16	
8	0	0	0	0	194	499	0	0	38	16	
9	0	0	0	0	271	487	0	0	38	16	
10	0	0	0	0	457	479	0	0	38	16	
11	0	0	0	0	607	478	0	1018	38	16	
12	0	0	0	0	645	477	0	1018	38	16	
13	0	0	0	0	713	482	0	1018	38	16	
14	0	0	0	0	837	495	0	1018	38	16	
15	0	0	0	0	827	508	0	1018	38	16	
0	0	0	0	0	763	520	0	1018	38	16	
1	0	0	0	0	580	526	0	1018	38	16	
2	0	0	0	0	415	526	0	1018	38	16	
3	0	0	0	0	440	525	0	1018	38	16	
4	0	0	0	0	447	524	0	0	38	16	
5	0	0	0	0	465	525	0	0	38	16	
6	0	0	0	0	464	525	0	0	38	16	
7	0	0	0	0	434	525	0	0	38	16	
8	0	0	0	0	436	523	0	0	38	16	
9	0	0	0	0	430	521	0	0	38	16	
10	0	0	0	0	440	519	0	0	37	16	
11	0	0	0	0	274	511	0	0	38	16	
12	0	0	0	0	195	497	0	0	38	16	
13	0	0	0	0	273	484	0	0	38	16	
14	0	0	0	0	460	478	0	0	38	16	
15	0	0	0	0	614	478	0	1018	38	16	
0	0	0	0	0	645	478	0	1018	38	16	
1	0	0	0	0	708	483	0	1018	38	16	
2	0	0	0	0	839	494	0	1018	37	16	
3	0	0	0	0	839	506	0	1018	38	16	
4	0	0	0	0	768	519	0	1018	38	16	
5	0	0	0	0	580	524	0	1018	38	16	
6	0	0	0	0	408	525	0	1018	38	16	
7	0	0	0	0	434	525	0	1018	38	16	
8	0	0	0	0	447	526	0	0	38	16	
9	0	0	0	0	467	526	0	0	38	16	
10	0	0	0	0	465	526	0	0	37	16	
11	0	0	0	0	429	524	0	0	38	16	
12	0	0	0	0	424	524	0	0	38	16	
13	0	0	0	0	430	521	0	0	38	16	
14	0	0	0	0	446	519	0	0	38	16	
15	0	0	0	0	274	510	0	0	38	16	
0	0	0	0	0	196	496	0	0	38	16	
1	0	0	0	0	279	485	0	0	38	16	
2	0	0	0	0	461	478	0	0	37	16	
3	0	0	0	0	612	476	0	1018	38	16	
4	0	0	0	0	652	479	0	1018	38	16	
5	0	0	0	0	711	483	0	1018	38	16	
6	0	0	0	0	837	495	0	1018	38	16	
7	0	0	0	0	827	508	0	1018	38	16	
8	0	0	0	0	781	522	0	1018	38	16	
9	0	0	0	0	587	528	0	1018	38	16	
10	0	0	0	0	412	527	0	1018	37	16	
11	0	0	0	0	442	526	0	1018	38	16	
12	0	0	0	0	445	526	0	0	38	16	
13	0	0	0	0	460	528	0	0	38	16	
14	0	0	0	0	462	526	0	0	38	16	
15	0	0	0	0	428	524	0	0	38	16	
0	0	0	0	0	425	525	0	0	38	16	
1	0	0	0	0	433	520	0	0	38	16	
2	0	0	0	0	445	519	0	0	37	16	
3	0	0	0	0	272	509	0	0	38	16	
4	0	0	0	0	199	493	0	0	38	16	
5	0	0	0	0	279	481	0	0	38	16	
6	0	0	0	0	456	472	0	0	38	16	
7	0	0	0	0	609	472	0	1018	38	16	
8	0	0	0	0	653	476	0	1018	38	16	
9	0	0	0	0	717	479	0	1018	38	16	
10	0	0	0	0	833	493	0	1018	37	16	
11	0	0	0	0	819	507	0	1018	38	16	
12	0	0	0	0	772	521	0	1018	38	16	
13	0	0	0	0	587	528	0	1018	38	16	
14	0	0	0	0	417	527	0	1018	38	16	
15	0	0	0	0	433	528	0	1018	38	16	
0	0	0	0	0	448	527	0	0	38	16	
1	0	0	0	0	463	528	0	0	38	16	
2	0	0	0	0	461	528	0	0	37	16	
3	0	0	0	0	435	526	0	0	38	16	
4	0	0	0	0	433	525	0	0	38	16	
5	0	0	0	0	428	521	0	0	38	16	
6	0	0	0	0	438	519	0	0	38	16	
7	0	0	0	0	271	510	0	0	38	16	
8	0	0	0	0	197	494	0	0	38	16	
9	0	0	0	0	275	485	0	0	38	16	
10	0	0	0	0	459	477	0	0	37	16	
11	0	0	0	0	605	475	0	1018	38	16	
12	0	0	0	0	649	478	0	1018	38	16	
13	0	0	0	0	715	482	0	1018	38	16	
14	0	0	0	0	841	494	0	1018	38	16	
15	0	0	0	0	830	506	0	1018	38	16	
0	0	0	0	0	785	520	0	1018	38	16	
1	0	0	0	0	586	525	0	1018	38	16	
2	0	0	0	0	421	526	0	1018	37	16	
3	0	0	0	0	432	524	0	1018	38	16	
4	0	0	0	0	440	523	0	0	38	16	
5	0	0	0	0	459	522	0	0	38	16	
6	0	0	0	0	455	523	0	0	38	16	
7	0	0	0	0	432	523	0	0	38	16	
8	0	0	0	0	436	523	0	0	38	16	
9	0	0	0	0	435	521	0	0	38	16	
10	0	0	0	0	443	519	0	0	37	16	
11	0	0	0	0	268	511	0	0	38	16	
12	0	0	0	0	199	495	0	0	38	16	
13	0	0	0	0	278	483	0	0	38	16	
14	0	0	0	0	458	474	0	0	38	16	
15	0	0	0	0	603	473	0	1018	38	16	
0	0	0	0	0	653	476	0	1018	38	16	
1	0	0	0	0	711	483	0	1018	38	16	
2	0	0	0	0	833	494	0	1018	37	16	
3	0	0	0	0	829	505	0	1018	38	16	
4	0	0	0	0	777	519	0	1018	38	16	
5	0	0	0	0	591	526	0	1018	38	16	
6	0	0	0	0	414	525	0	1018	38	16	
7	0	0	0	0	435	524	0	1018	38	16	
8	0	0	0	0	448	525	0	0	38	16	
9	0	0	0	0	464	524	0	0	38	16	
10	0	0	0	0	462	524	0	0	37	16	
11	0	0	0	0	435	521	0	0	38	16	
12	0	0	0	0	435	520	0	0	38	16	
13	0	0	0	0	432	520	0	0	38	16	
14	0	0	0	0	438	519	0	0	38	16	
15	0	0	0	0	270	511	0	0	38	16	
0	0	0	0	0	191	497	0	0	38	16	
1	0	0	0	0	277	485	0	0	38	16	
2	0	0	0	0	450	476	0	0	37	16	
3	0	0	0	0	612	476	0	1018	38	16	
4	0	0	0	0	655	480	0	1018	38	16	
5	0	0	0	0	717	485	0	1018	38	16	
6	0	0	0	0	831	496	0	1018	38	16	
7	0	0	0	0	829	505	0	1018	38	16	
8	0	0	0	0	779	517	0	1018	38	16	
9	0	0	0	0	584	523	0	1018	38	16	
10	0	0	0	0	417	523	0	1018	37	16	
11	0	0	0	0	433	523	0	1018	38	16	
12	0	0	0	0	442	524	0	0	38	16	
13	0	0	0	0	462	526	0	0	38	16	
14	0	0	0	0	463	526	0	0	38	16	
15	0	0	0	0	435	524	0	0	38	16	
0	0	0	0	0	440	525	0	0	38	16	
1	0	0	0	0	421	523	0	0	38	16	
2	0	0	0	0	444	521	0	0	37	16	
3	0	0	0	0	276	512	0	0	38	16	
4	0	0	0	0	191	496	0	0	38	16	
5	0	0	0	0	273	484	0	0	38	16	
6	0	0	0	0	453	476	0	0	38	16	
7	0	0	0	0	612	475	0	1018	38	16	
8	0	0	0	0	652	478	0	1018	38	16	
9	0	0	0	0	709	481	0	1018	38	16	
10	0	0	0	0	837	494	0	1018	37	16	
11	0	0	0	0	830	505	0	1018	38	16	
12	0	0	0	0	778	519	0	1018	38	16	
13	0	0	0	0	590	524	0	1018	38	16	
14	0	0	0	0	423	525	0	1018	38	16	
15	0	0	0	0	433	525	0	1018	38	16	
0	0	0	0	0	446	524	0	0	38	16	
1	0	0	0	0	460	524	0	0	38	16	
2	0	0	0	0	467	525	0	0	37	16	
3	0	0	0	0	432	524	0	0	38	16	
4	0	0	0	0	433	524	0	0	38	16	
5	0	0	0	0	430	522	0	0	38	16	
6	0	0	0	0	438	519	0	0	38	16	
7	0	0	0	0	270	512	0	0	38	16	
8	0	0	0	0	193	499	0	0	38	16	
9	0	0	0	0	274	485	0	0	38	16	
10	0	0	0	0	448	478	0	0	37	16	
11	0	0	0	0	599	478	0	1018	38	16	
12	0	0	0	0	660	480	0	1018	38	16	
13	0	0	0	0	708	484	0	1018	38	16	
14	0	0	0	0	836	496	0	1018	38	16	
15	0	0	0	0	826	508	0	1018	38	16	
0	0	0	0	0	783	519	0	1018	38	16	
1	0	0	0	0	590	527	0	1018	38	16	
2	0	0	0	0	415	526	0	1018	37	16	
3	0	0	0	0	433	525	0	1018	38	16	
4	0	0	0	0	442	523	0	0	38	16	
5	0	0	0	0	466	522	0	0	38	16	
6	0	0	0	0	457	521	0	0	38	16	
7	0	0	0	0	427	521	0	0	38	16	
8	0	0	0	0	438	520	0	0	38	16	
9	0	0	0	0	430	517	0	0	38	16	
10	0	0	0	0	444	515	0	0	37	16	
11	0	0	0	0	280	509	0	0	38	16	
12	0	0	0	0	196	492	0	0	38	16	
13	0	0	0	0	276	481	0	0	38	16	
14	0	0	0	0	445	472	0	0	38	16	
15	0	0	0	0	599	474	0	1018	38	16	
0	0	0	0	0	652	476	0	1018	38	16	
1	0	0	0	0	706	480	0	1018	38	16	
2	0	0	0	0	840	491	0	1018	37	16	
3	0	0	0	0	821	503	0	1018	38	16	
4	0	0	0	0	786	517	0	1018	38	16	
5	0	0	0	0	585	524	0	1018	38	16	
6	0	0	0	0	411	524	0	1018	38	16	
7	0	0	0	0	435	523	0	1018	38	16	
8	0	0	0	0	452	525	0	31	38	16	
9	0	0	0	0	468	525	0	0	38	16	
10	0	0	0	0	463	524	0	0	37	16	
11	0	0	0	0	421	524	0	0	38	16	
12	0	0	0	0	438	524	0	0	38	16	
13	0	0	0	0	435	523	0	0	38	16	
14	0	0	0	0	439	520	0	0	38	16	
15	0	0	0	0	274	514	0	0	38	16	
0	0	0	0	0	196	499	0	0	38	16	
1	0	0	0	0	275	486	0	0	38	16	
2	0	0	0	0	440	478	0	0	37	16	
3	0	0	0	0	603	478	0	1018	38	16	
4	0	0	0	0	663	480	0	1018	38	16	
5	0	0	0	0	700	483	0	1018	38	16	
6	0	0	0	0	842	494	0	1018	38	16	
7	0	0	0	0	829	507	0	1018	38	16	
8	0	0	0	0	775	519	0	1018	38	16	
9	0	0	0	0	587	527	0	1018	38	16	
10	0	0	0	0	411	527	0	1018	37	16	
11	0	0	0	0	443	525	0	1018	38	16	
12	0	0	0	0	446	524	0	661	38	16	
13	0	0	0	0	467	526	0	0	38	16	
14	0	0	0	0	461	526	0	0	38	16	
15	0	0	0	0	435	526	0	0	38	16	
0	0	0	0	0	438	524	0	0	38	16	
1	0	0	0	0	432	523	0	0	38	16	
2	0	0	0	0	444	519	0	0	37	16	
3	0	0	0	0	273	511	0	0	38	16	
4	0	0	0	0	193	495	0	0	38	16	
5	0	0	0	0	269	483	0	0	38	16	
6	0	0	0	0	444	476	0	857	38	16	
7	0	0	0	0	598	476	0	1018	38	16	
8	0	0	0	0	655	477	0	1018	38	16	
9	0	0	0	0	703	480	0	1018	38	16	
10	0	0	0	0	843	493	0	1018	37	16	
11	0	0	0	0	831	505	0	1018	38	16	
12	0	0	0	0	775	519	0	1018	38	16	
13	0	0	0	0	592	527	0	1018	38	16	
14	0	0	0	0	413	526	0	1018	38	16	
15	0	0	0	0	435	525	0	1018	38	16	
0	0	0	0	0	443	526	0	589	38	16	
1	0	0	0	0	460	527	0	0	38	16	
2	0	0	0	0	456	528	0	0	37	16	
3	0	0	0	0	441	527	0	0	38	16	
4	0	0	0	0	443	524	0	0	38	16	
5	0	0	0	0	426	521	0	0	38	16	
6	0	0	0	0	444	519	0	0	38	16	
7	0	0	0	0	275	510	0	0	38	16	
8	0	0	0	0	192	495	0	0	38	16	
9	0	0	0	0	269	484	0	0	38	16	
10	0	0	0	0	435	477	0	651	37	16	
11	0	0	0	0	596	476	0	1018	38	16	
12	0	0	0	0	649	479	0	1018	38	16	
13	0	0	0	0	707	481	0	1018	38	16	
14	0	0	0	0	848	489	0	1018	38	16	
15	0	0	0	0	830	499	0	1018	38	16	
0	0	0	0	0	785	514	0	1018	38	16	
1	0	0	0	0	587	521	0	1018	38	16	
2	0	0	0	0	419	521	0	1018	37	16	
3	0	0	0	0	438	522	0	1018	38	16	
4	0	0	0	0	442	521	0	542	38	16	
5	0	0	0	0	461	522	0	0	38	16	
6	0	0	0	0	464	524	0	0	38	16	
7	0	0	0	0	433	523	0	0	38	16	
8	0	0	0	0	438	523	0	0	38	16	
9	0	0	0	0	428	521	0	0	38	16	
10	0	0	0	0	435	519	0	0	37	16	
11	0	0	0	0	275	511	0	0	38	16	
12	0	0	0	0	193	496	0	0	38	16	
13	0	0	0	0	271	482	0	0	38	16	
14	0	0	0	0	448	474	0	117	38	16	
15	0	0	0	0	600	473	0	1018	38	16	
0	0	0	0	0	651	475	0	1018	38	16	
1	0	0	0	0	699	479	0	1018	38	16	
2	0	0	0	0	844	490	0	1018	37	16	
3	0	0	0	0	820	504	0	1018	38	16	
4	0	0	0	0	789	517	0	1018	38	16	
5	0	0	0	0	595	524	0	1018	38	16	
6	0	0	0	0	412	523	0	1018	38	16	
7	0	0	0	0	435	523	0	1018	38	16	
8	0	0	0	0	443	523	0	376	38	16	
9	0	0	0	0	459	525	0	0	38	16	
10	0	0	0	0	462	524	0	0	37	16	
11	0	0	0	0	435	522	0	0	38	16	
12	0	0	0	0	436	521	0	0	38	16	
13	0	0	0	0	431	520	0	0	38	16	
14	0	0	0	0	444	519	0	0	38	16	
15	0	0	0	0	273	513	0	0	38	16	
0	0	0	0	0	189	499	0	0	38	16	
1	0	0	0	0	268	487	0	0	38	16	
2	0	0	0	0	442	480	0	0	37	16	
3	0	0	0	0	600	480	0	1018	38	16	
4	0	0	0	0	653	481	0	1018	38	16	
5	0	0	0	0	696	485	0	1018	38	16	
6	0	0	0	0	844	496	0	1018	38	16	
7	0	0	0	0	826	507	0	1018	38	16	
8	0	0	0	0	783	518	0	1018	38	16	
9	0	0	0	0	593	526	0	1018	38	16	
10	0	0	0	0	416	527	0	1018	37	16	
11	0	0	0	0	431	527	0	1018	38	16	
12	0	0	0	0	445	527	0	271	38	16	
13	0	0	0	0	462	526	0	0	38	16	
14	0	0	0	0	457	527	0	0	38	16	
15	0	0	0	0	447	525	0	0	38	16	
0	0	0	0	0	447	524	0	0	38	16	
1	0	0	0	0	432	523	0	0	38	16	
2	0	0	0	0	438	521	0	0	37	16	
3	0	0	0	0	274	514	0	0	38	16	
4	0	0	0	0	187	500	0	0	38	16	
5	0	0	0	0	271	487	0	0	38	16	
6	0	0	0	0	434	478	0	0	38	16	
7	0	0	0	0	598	476	0	1018	38	16	
8	0	0	0	0	656	477	0	1018	38	16	
9	0	0	0	0	697	480	0	1018	38	16	
10	0	0	0	0	846	491	0	1018	37	16	
11	0	0	0	0	833	503	0	1018	38	16	
12	0	0	0	0	792	515	0	1018	38	16	
13	0	0	0	0	595	522	0	1018	38	16	
14	0	0	0	0	419	524	0	1018	38	16	
15	0	0	0	0	435	523	0	1018	38	16	
0	0	0	0	0	445	521	0	156	38	16	
1	0	0	0	0	462	523	0	0	38	16	
2	0	0	0	0	467	525	0	0	38	16	
3	0	0	0	0	433	526	0	0	38	16	
4	0	0	0	0	440	525	0	0	37	16	
5	0	0	0	0	426	524	0	0	37	16	
6	0	0	0	0	432	522	0	0	38	16	
7	0	0	0	0	274	513	0	0	37	16	
8	0	0	0	0	179	497	0	0	37	16	
9	0	0	0	0	268	485	0	0	38	16	
10	0	0	0	0	438	476	0	0	37	16	
11	0	0	0	0	596	475	0	1018	38	16	
12	0	0	0	0	652	477	0	1018	38	16	
13	0	0	0	0	697	482	0	1018	38	16	
14	0	0	0	0	850	494	0	1018	38	16	
15	0	0	0	0	832	505	0	1018	38	16	
0	0	0	0	0	798	518	0	1018	38	16	
1	0	0	0	0	601	526	0	1018	38	16	
2	0	0	0	0	417	525	0	1018	37	16	
3	0	0	0	0	435	526	0	1018	38	16	
4	0	0	0	0	453	526	0	42	38	16	
5	0	0	0	0	455	527	0	0	38	16	
6	0	0	0	0	457	527	0	0	38	16	
7	0	0	0	0	431	524	0	0	38	16	
8	0	0	0	0	434	523	0	0	38	16	
9	0	0	0	0	430	520	0	0	38	16	
10	0	0	0	0	439	519	0	0	38	16	
11	0	0	0	0	278	512	0	0	38	16	
12	0	0	0	0	180	497	0	0	38	16	
13	0	0	0	0	261	484	0	0	38	16	
14	0	0	0	0	427	475	0	0	38	16	
15	0	0	0	0	591	475	0	1018	38	16	
0	0	0	0	0	656	476	0	1018	38	16	
1	0	0	0	0	697	480	0	1018	38	16	
2	0	0	0	0	858	492	0	1018	37	16	
3	0	0	0	0	837	505	0	1018	38	16	
4	0	0	0	0	798	519	0	1018	38	16	
5	0	0	0	0	602	524	0	1018	38	16	
6	0	0	0	0	416	526	0	1018	38	16	
7	0	0	0	0	434	525	0	1018	38	16	
8	0	0	0	0	448	526	0	16	38	16	
9	0	0	0	0	462	527	0	0	38	16	
10	0	0	0	0	467	528	0	0	38	16	
11	0	0	0	0	425	527	0	0	38	16	
12	0	0	0	0	431	526	0	0	38	16	
13	0	0	0	0	433	524	0	0	38	16	
14	0	0	0	0	437	519	0	0	38	16	
15	0	0	0	0	270	512	0	0	38	16	
0	0	0	0	0	176	496	0	0	38	16	
1	0	0	0	0	263	483	0	0	38	16	
2	0	0	0	0	430	476	0	0	37	16	
3	0	0	0	0	590	477	0	1018	38	16	
4	0	0	0	0	655	477	0	1018	38	16	
5	0	0	0	0	696	483	0	1018	38	16	
6	0	0	0	0	861	495	0	1018	38	16	
7	0	0	0	0	846	507	0	1018	38	16	
8	0	0	0	0	807	521	0	1018	38	16	
9	0	0	0	0	599	528	0	1018	38	16	
10	0	0	0	0	422	529	0	1018	37	16	
11	0	0	0	0	431	528	0	1018	38	16	
12	0	0	0	0	446	529	0	0	38	16	
13	0	0	0	0	461	529	0	0	38	16	
14	0	0	0	0	456	528	0	0	38	16	
15	0	0	0	0	431	525	0	0	38	16	
0	0	0	0	0	436	524	0	0	38	16	
1	0	0	0	0	428	521	0	0	38	16	
2	0	0	0	0	436	520	0	0	38	16	
3	0	0	0	0	275	512	0	0	38	16	
4	0	0	0	0	170	497	0	0	38	16	
5	0	0	0	0	264	485	0	0	38	16	
6	0	0	0	0	427	477	0	0	38	16	
7	0	0	0	0	591	474	0	1018	38	16	
8	0	0	0	0	652	475	0	1018	38	16	
9	0	0	0	0	692	478	0	1018	38	16	
10	0	0	0	0	862	489	0	1018	37	16	
11	0	0	0	0	852	502	0	1018	38	16	
12	0	0	0	0	809	516	0	1018	38	16	
13	0	0	0	0	615	523	0	1018	38	16	
14	0	0	0	0	420	524	0	1018	38	16	
15	0	0	0	0	434	524	0	1018	38	16	
0	0	0	0	0	449	524	0	0	38	16	
1	0	0	0	0	468	527	0	0	38	16	
2	0	0	0	0	457	528	0	0	37	16	
3	0	0	0	0	431	528	0	0	38	16	
4	0	0	0	0	439	528	0	0	38	16	
5	0	0	0	0	426	524	0	0	38	16	
6	0	0	0	0	435	524	0	0	38	16	
7	0	0	0	0	264	515	0	0	38	16	
8	0	0	0	0	167	499	0	0	38	16	
9	0	0	0	0	245	486	0	0	38	16	
10	0	0	0	0	414	476	0	0	37	16	
11	0	0	0	0	585	476	0	1018	38	16	
12	0	0	0	0	647	478	0	1018	38	16	
13	0	0	0	0	694	480	0	1018	38	16	
14	0	0	0	0	867	491	0	1018	38	16	
15	0	0	0	0	848	504	0	1018	38	16	
0	0	0	0	0	822	519	0	1018	38	16	
1	0	0	0	0	620	528	0	1018	38	16	
2	0	0	0	0	417	526	0	1018	37	16	
3	0	0	0	0	434	525	0	1018	38	16	
4	0	0	0	0	454	526	0	0	38	16	
5	0	0	0	0	457	527	0	0	38	16	
6	0	0	0	0	457	525	0	0	38	16	
7	0	0	0	0	445	524	0	0	38	16	
8	0	0	0	0	438	525	0	0	38	16	
9	0	0	0	0	428	523	0	0	38	16	
10	0	0	0	0	435	521	0	0	37	16	
11	0	0	0	0	265	513	0	0	38	16	
12	0	0	0	0	159	497	0	0	38	16	
13	0	0	0	0	238	481	0	0	38	16	
14	0	0	0	0	415	472	0	0	38	16	
15	0	0	0	0	591	470	0	1018	38	16	
0	0	0	0	0	656	473	0	1018	38	16	
1	0	0	0	0	694	475	0	1018	38	16	
2	0	0	0	0	866	487	0	1018	37	16	
3	0	0	0	0	854	502	0	1018	38	16	
4	0	0	0	0	816	516	0	1018	38	16	
5	0	0	0	0	622	525	0	1018	38	16	
6	0	0	0	0	426	526	0	1018	38	16	
7	0	0	0	0	428	526	0	1018	38	16	
8	0	0	0	0	448	527	0	63	38	16	
9	0	0	0	0	464	526	0	0	38	16	
10	0	0	0	0	461	527	0	0	37	16	
11	0	0	0	0	433	525	0	0	38	16	
12	0	0	0	0	440	524	0	0	38	16	
13	0	0	0	0	426	522	0	0	38	16	
14	0	0	0	0	425	520	0	0	38	16	
15	0	0	0	0	260	512	0	0	38	16	
0	0	0	0	0	164	496	0	0	38	16	
1	0	0	0	0	242	481	0	0	38	16	
2	0	0	0	0	418	471	0	0	38	16	
3	0	0	0	0	586	469	0	1018	38	16	
4	0	0	0	0	652	471	0	1018	38	16	
5	0	0	0	0	684	474	0	1018	38	16	
6	0	0	0	0	877	487	0	1018	38	16	
7	0	0	0	0	859	499	0	1018	38	16	
8	0	0	0	0	827	514	0	1018	38	16	
9	0	0	0	0	624	521	0	1018	38	16	
10	0	0	0	0	420	523	0	1018	37	16	
11	0	0	0	0	433	522	0	1018	38	16	
12	0	0	0	0	440	521	0	0	38	16	
13	0	0	0	0	461	522	0	0	38	16	
14	0	0	0	0	456	521	0	0	38	16	
15	0	0	0	0	441	521	0	0	38	16	
0	0	0	0	0	447	523	0	0	38	16	
1	0	0	0	0	422	521	0	0	38	16	
2	0	0	0	0	438	519	0	0	37	16	
3	0	0	0	0	255	511	0	0	38	16	
4	0	0	0	0	154	495	0	0	38	16	
5	0	0	0	0	245	480	0	0	38	16	
6	0	0	0	0	407	471	0	0	38	16	
7	0	0	0	0	588	470	0	1018	38	16	
8	0	0	0	0	658	473	0	1018	38	16	
9	0	0	0	0	687	477	0	1018	38	16	
10	0	0	0	0	869	489	0	1018	37	16	
11	0	0	0	0	867	501	0	1018	38	16	
12	0	0	0	0	830	516	0	1018	38	16	
13	0	0	0	0	620	526	0	1018	38	16	
14	0	0	0	0	426	526	0	1018	38	16	
15	0	0	0	0	430	527	0	1018	38	16	
0	0	0	0	0	449	527	0	14	38	16	
1	0	0	0	0	460	527	0	0	38	16	
2	0	0	0	0	451	527	0	0	37	16	
3	0	0	0	0	439	526	0	0	38	16	
4	0	0	0	0	446	525	0	0	38	16	
5	0	0	0	0	423	524	0	0	38	16	
6	0	0	0	0	435	522	0	0	38	16	
7	0	0	0	0	268	515	0	0	38	16	
8	0	0	0	0	145	499	0	0	38	16	
9	0	0	0	0	236	486	0	0	38	16	
10	0	0	0	0	406	475	0	0	37	16	
11	0	0	0	0	584	472	0	1018	38	16	
12	0	0	0	0	660	475	0	1018	38	16	
13	0	0	0	0	688	478	0	1018	38	16	
14	0	0	0	0	876	489	0	1018	38	16	
15	0	0	0	0	866	501	0	1018	38	16	
0	0	0	0	0	834	518	0	1018	38	16	
1	0	0	0	0	625	527	0	1018	38	16	
2	0	0	0	0	430	527	0	1018	37	16	
3	0	0	0	0	420	527	0	1018	38	16	
4	0	0	0	0	444	527	0	123	38	16	
5	0	0	0	0	466	527	0	0	38	16	
6	0	0	0	0	459	528	0	0	38	16	
7	0	0	0	0	435	529	0	0	38	16	
8	0	0	0	0	438	529	0	0	38	16	
9	0	0	0	0	421	526	0	0	38	16	
10	0	0	0	0	430	523	0	0	37	16	
11	0	0	0	0	257	515	0	0	38	16	
12	0	0	0	0	149	498	0	0	38	16	
13	0	0	0	0	240	484	0	0	38	16	
14	0	0	0	0	410	474	0	0	38	16	
15	0	0	0	0	579	472	0	1018	38	16	
0	0	0	0	0	660	473	0	1018	38	16	
1	0	0	0	0	691	478	0	1018	38	16	
2	0	0	0	0	885	489	0	1018	38	16	
3	0	0	0	0	853	502	0	1018	38	16	
4	0	0	0	0	838	517	0	1018	38	16	
5	0	0	0	0	622	526	0	1018	38	16	
6	0	0	0	0	418	527	0	1018	38	16	
7	0	0	0	0	430	528	0	1018	38	16	
8	0	0	0	0	443	529	0	202	38	16	
9	0	0	0	0	462	528	0	0	38	16	
10	0	0	0	0	462	529	0	0	37	16	
11	0	0	0	0	432	527	0	0	38	16	
12	0	0	0	0	444	526	0	0	38	16	
13	0	0	0	0	419	524	0	0	38	16	
14	0	0	0	0	432	522	0	0	38	16	
15	0	0	0	0	258	516	0	0	38	16	
0	0	0	0	0	150	500	0	0	38	16	
1	0	0	0	0	238	487	0	0	38	16	
2	0	0	0	0	406	476	0	0	38	16	
3	0	0	0	0	585	475	0	1018	38	16	
4	0	0	0	0	655	477	0	1018	38	16	
5	0	0	0	0	688	481	0	1018	38	16	
6	0	0	0	0	879	492	0	1018	38	16	
7	0	0	0	0	860	504	0	1018	38	16	
8	0	0	0	0	834	520	0	1018	38	16	
9	0	0	0	0	629	529	0	1018	38	16	
10	0	0	0	0	418	529	0	1018	37	16	
11	0	0	0	0	416	528	0	1018	38	16	
12	0	0	0	0	452	530	0	0	38	16	
13	0	0	0	0	466	529	0	0	38	16	
14	0	0	0	0	460	529	0	0	38	16	
15	0	0	0	0	435	527	0	0	38	16	
0	0	0	0	0	444	527	0	0	38	16	
1	0	0	0	0	425	524	0	0	38	16	
2	0	0	0	0	435	523	0	0	37	16	
3	0	0	0	0	258	515	0	0	38	16	
4	0	0	0	0	152	500	0	0	38	16	
5	0	0	0	0	233	484	0	0	38	16	
6	0	0	0	0	403	474	0	0	38	16	
7	0	0	0	0	575	471	0	666	38	16	
8	0	0	0	0	659	474	0	1018	38	16	
9	0	0	0	0	682	476	0	1018	38	16	
10	0	0	0	0	877	488	0	1018	37	16	
11	0	0	0	0	860	501	0	1018	38	16	
12	0	0	0	0	836	518	0	1018	38	16	
13	0	0	0	0	627	526	0	1018	38	16	
14	0	0	0	0	427	527	0	1018	38	16	
15	0	0	0	0	429	526	0	768	38	16	
0	0	0	0	0	447	527	0	0	38	16	
1	0	0	0	0	463	527	0	0	38	16	
2	0	0	0	0	462	527	0	0	37	16	
3	0	0	0	0	436	526	0	0	38	16	
4	0	0	0	0	435	526	0	0	38	16	
5	0	0	0	0	427	523	0	0	38	16	
6	0	0	0	0	434	522	0	0	38	16	
7	0	0	0	0	254	513	0	0	38	16	
8	0	0	0	0	150	497	0	0	38	16	
9	0	0	0	0	237	482	0	0	38	16	
10	0	0	0	0	402	472	0	0	37	16	
11	0	0	0	0	575	471	0	784	38	16	
12	0	0	0	0	652	471	0	1018	38	16	
13	0	0	0	0	680	473	0	1018	38	16	
14	0	0	0	0	872	485	0	1018	38	16	
15	0	0	0	0	865	498	0	1018	38	16	
0	0	0	0	0	835	515	0	1018	38	16	
1	0	0	0	0	634	523	0	1018	38	16	
2	0	0	0	0	425	526	0	1018	37	16	
3	0	0	0	0	432	526	0	1018	38	16	
4	0	0	0	0	451	525	0	0	38	16	
5	0	0	0	0	465	526	0	0	38	16	
6	0	0	0	0	464	525	0	0	38	16	
7	0	0	0	0	442	524	0	0	38	16	
8	0	0	0	0	437	523	0	0	38	16	
9	0	0	0	0	426	521	0	0	38	16	
10	0	0	0	0	427	519	0	0	37	16	
11	0	0	0	0	259	512	0	0	38	16	
12	0	0	0	0	144	497	0	0	38	16	
13	0	0	0	0	240	485	0	0	38	16	
14	0	0	0	0	403	475	0	0	38	16	
15	0	0	0	0	588	474	0	1018	38	16	
0	0	0	0	0	654	475	0	1018	38	16	
1	0	0	0	0	682	478	0	1018	38	16	
2	0	0	0	0	880	489	0	1018	37	16	
3	0	0	0	0	863	502	0	1018	38	16	
4	0	0	0	0	834	516	0	1018	38	16	
5	0	0	0	0	630	525	0	1018	38	16	
6	0	0	0	0	415	527	0	1018	38	16	
7	0	0	0	0	430	528	0	1018	38	16	
8	0	0	0	0	450	527	0	0	38	16	
9	0	0	0	0	460	527	0	0	38	16	
10	0	0	0	0	456	527	0	0	37	16	
11	0	0	0	0	445	527	0	0	38	16	
12	0	0	0	0	438	525	0	0	38	16	
13	0	0	0	0	430	522	0	0	38	16	
14	0	0	0	0	432	521	0	0	38	16	
15	0	0	0	0	258	513	0	0	38	16	
0	0	0	0	0	150	496	0	0	38	16	
1	0	0	0	0	236	482	0	0	38	16	
2	0	0	0	0	403	473	0	0	37	16	
3	0	0	0	0	578	470	0	1018	38	16	
4	0	0	0	0	653	471	0	1018	38	16	
5	0	0	0	0	684	474	0	1018	38	16	
6	0	0	0	0	879	487	0	1018	38	16	
7	0	0	0	0	856	501	0	1018	38	16	
8	0	0	0	0	837	516	0	1018	38	16	
9	0	0	0	0	629	523	0	1018	38	16	
10	0	0	0	0	428	523	0	1018	37	16	
11	0	0	0	0	426	521	0	1018	38	16	
12	0	0	0	0	445	524	0	0	38	16	
13	0	0	0	0	463	524	0	0	38	16	
14	0	0	0	0	458	526	0	0	38	16	
15	0	0	0	0	437	526	0	0	38	16	
0	0	0	0	0	446	526	0	0	38	16	
1	0	0	0	0	425	524	0	0	38	16	
2	0	0	0	0	429	522	0	0	37	16	
3	0	0	0	0	262	515	0	0	38	16	
4	0	0	0	0	147	500	0	0	38	16	
5	0	0	0	0	238	484	0	0	38	16	
6	0	0	0	0	401	474	0	0	38	16	
7	0	0	0	0	576	471	0	1018	38	16	
8	0	0	0	0	649	472	0	1018	38	16	
9	0	0	0	0	679	473	0	1018	38	16	
10	0	0	0	0	875	484	0	1018	37	16	
11	0	0	0	0	854	499	0	1018	39	16	
12	0	0	0	0	836	515	0	1018	39	16	
13	0	0	0	0	625	523	0	1018	38	16	
14	0	0	0	0	424	524	0	1018	38	16	
15	0	0	0	0	431	524	0	1018	38	16	
0	0	0	0	0	460	525	0	0	38	16	
1	0	0	0	0	460	525	0	0	38	16	
2	0	0	0	0	457	527	0	0	38	16	
3	0	0	0	0	440	526	0	0	38	16	
4	0	0	0	0	432	524	0	0	38	16	
5	0	0	0	0	425	523	0	0	38	16	
6	0	0	0	0	432	521	0	0	38	16	
7	0	0	0	0	264	515	0	0	38	16	
8	0	0	0	0	153	500	0	0	38	16	
9	0	0	0	0	237	486	0	0	38	16	
10	0	0	0	0	414	476	0	0	37	16	
11	0	0	0	0	575	474	0	1018	38	16	
12	0	0	0	0	657	475	0	1018	38	16	
13	0	0	0	0	677	478	0	1018	38	16	
14	0	0	0	0	875	490	0	1018	38	16	
15	0	0	0	0	851	503	0	1018	38	16	
0	0	0	0	0	831	518	0	1018	38	16	
1	0	0	0	0	632	527	0	1018	38	16	
2	0	0	0	0	423	528	0	1018	37	16	
3	0	0	0	0	424	529	0	1018	38	16	
4	0	0	0	0	448	528	0	0	38	16	
5	0	0	0	0	462	527	0	0	38	16	
6	0	0	0	0	461	530	0	0	38	16	
7	0	0	0	0	446	530	0	0	38	16	
8	0	0	0	0	440	528	0	0	38	16	
9	0	0	0	0	422	525	0	0	38	16	
10	0	0	0	0	433	523	0	0	37	16	
11	0	0	0	0	259	516	0	0	38	16	
12	0	0	0	0	153	503	0	0	38	16	
13	0	0	0	0	236	488	0	0	38	16	
14	0	0	0	0	399	478	0	0	38	16	
15	0	0	0	0	582	474	0	1018	38	16	
0	0	0	0	0	655	475	0	1018	38	16	
1	0	0	0	0	688	478	0	1018	38	16	
2	0	0	0	0	874	491	0	1018	37	16	
3	0	0	0	0	857	504	0	1018	38	16	
4	0	0	0	0	839	519	0	1018	38	16	
5	0	0	0	0	635	527	0	1018	38	16	
6	0	0	0	0	422	528	0	1018	38	16	
7	0	0	0	0	428	526	0	1018	38	16	
8	0	0	0	0	448	528	0	0	38	16	
9	0	0	0	0	454	528	0	0	38	16	
10	0	0	0	0	457	528	0	0	37	16	
11	0	0	0	0	436	527	0	0	38	16	
12	0	0	0	0	440	525	0	0	38	16	
13	0	0	0	0	428	522	0	0	38	16	
14	0	0	0	0	435	519	0	0	38	16	
15	0	0	0	0	259	512	0	0	38	16	
0	0	0	0	0	150	499	0	0	38	16	
1	0	0	0	0	247	486	0	0	38	16	
2	0	0	0	0	402	476	0	0	37	16	
3	0	0	0	0	585	475	0	1018	38	16	
4	0	0	0	0	654	475	0	1018	38	16	
5	0	0	0	0	676	478	0	1018	38	16	
6	0	0	0	0	876	491	0	1018	38	16	
7	0	0	0	0	851	504	0	1018	38	16	
8	0	0	0	0	837	517	0	1018	38	16	
9	0	0	0	0	630	526	0	1018	38	16	
10	0	0	0	0	424	525	0	1018	37	16	
11	0	0	0	0	420	527	0	1018	38	16	
12	0	0	0	0	455	529	0	0	38	16	
13	0	0	0	0	465	529	0	0	38	16	
14	0	0	0	0	454	529	0	0	38	16	
15	0	0	0	0	438	528	0	0	38	16	
0	0	0	0	0	442	528	0	0	38	16	
1	0	0	0	0	425	526	0	0	38	15	
2	0	0	0	0	429	522	0	0	37	15	
3	0	0	0	0	266	515	0	0	38	15	
4	0	0	0	0	152	499	0	0	38	15	
5	0	0	0	0	242	486	0	0	38	15	
6	0	0	0	0	397	476	0	0	38	15	
7	0	0	0	0	570	472	0	0	38	15	
8	0	0	0	0	652	474	0	1018	38	15	
9	0	0	0	0	679	476	0	1018	38	15	
10	0	0	0	0	879	486	0	1018	37	15	
11	0	0	0	0	852	497	0	1018	38	15	
12	0	0	0	0	833	513	0	1018	38	15	
13	0	0	0	0	634	521	0	1018	38	15	
14	0	0	0	0	426	522	0	1018	38	15	
15	0	0	0	0	425	522	0	68	38	15	
0	0	0	0	0	452	525	0	0	38	15	
1	0	0	0	0	460	526	0	0	38	15	
2	0	0	0	0	463	527	0	0	37	15	
3	0	0	0	0	444	528	0	0	38	15	
4	0	0	0	0	435	527	0	0	38	15	
5	0	0	0	0	423	525	0	0	38	15	
6	0	0	0	0	433	524	0	0	38	15	
7	0	0	0	0	263	516	0	0	38	15	
8	0	0	0	0	152	500	0	0	38	15	
9	0	0	0	0	235	486	0	0	38	15	
10	0	0	0	0	407	474	0	0	37	15	
11	0	0	0	0	585	472	0	1018	38	15	
12	0	0	0	0	657	472	0	1018	38	15	
13	0	0	0	0	671	473	0	1018	38	15	
14	0	0	0	0	875	485	0	1018	38	15	
15	0	0	0	0	848	498	0	1018	38	15	
0	0	0	0	0	836	514	0	1018	38	15	
1	0	0	0	0	635	522	0	1018	38	15	
2	0	0	0	0	433	524	0	1018	37	15	
3	0	0	0	0	430	524	0	1018	38	15	
4	0	0	0	0	455	525	0	1018	38	15	
5	0	0	0	0	455	526	0	387	38	15	
6	0	0	0	0	455	527	0	0	38	15	
7	0	0	0	0	441	527	0	0	38	15	
8	0	0	0	0	445	526	0	0	38	15	
9	0	0	0	0	422	524	0	0	38	15	
10	0	0	0	0	428	520	0	0	37	15	
11	0	0	0	0	263	513	0	0	38	15	
12	0	0	0	0	151	498	0	0	38	15	
13	0	0	0	0	235	483	0	0	38	15	
14	0	0	0	0	395	473	0	671	38	15	
15	0	0	0	0	580	471	0	1018	38	15	
0	0	0	0	0	656	471	0	1018	38	15	
1	0	0	0	0	667	474	0	1018	38	15	
2	0	0	0	0	878	488	0	1018	37	15	
3	0	0	0	0	857	502	0	1018	38	15	
4	0	0	0	0	832	518	0	1018	38	15	
5	0	0	0	0	634	526	0	1018	38	15	
6	0	0	0	0	430	528	0	1018	38	15	
7	0	0	0	0	432	527	0	1018	38	15	
8	0	0	0	0	450	527	0	0	38	15	
9	0	0	0	0	462	526	0	0	38	15	
10	0	0	0	0	461	527	0	0	37	15	
11	0	0	0	0	435	526	0	0	38	15	
12	0	0	0	0	448	524	0	0	38	15	
13	0	0	0	0	417	523	0	0	38	15	
14	0	0	0	0	426	520	0	0	38	15	
15	0	0	0	0	265	513	0	0	38	15	
0	0	0	0	0	152	497	0	0	38	15	
1	0	0	0	0	244	485	0	0	38	15	
2	0	0	0	0	402	474	0	0	37	15	
3	0	0	0	0	579	472	0	579	38	15	
4	0	0	0	0	653	473	0	1018	38	15	
5	0	0	0	0	668	476	0	1018	38	15	
6	0	0	0	0	873	488	0	1018	38	14	
7	0	0	0	0	846	502	0	1018	38	14	
8	0	0	0	0	829	517	0	1018	38	14	
9	0	0	0	0	638	526	0	1018	38	14	
10	0	0	0	0	439	527	0	1018	37	14	
11	0	0	0	0	424	527	0	89	38	14	
12	0	0	0	0	450	528	0	0	38	14	
13	0	0	0	0	458	527	0	0	38	14	
14	0	0	0	0	463	529	0	0	38	14	
15	0	0	0	0	443	528	0	0	38	14	
0	0	0	0	0	446	527	0	0	38	14	
1	0	0	0	0	417	525	0	0	38	14	
2	0	0	0	0	426	524	0	0	37	14	
3	0	0	0	0	266	515	0	0	38	14	
4	0	0	0	0	153	501	0	0	38	14	
5	0	0	0	0	239	486	0	0	38	14	
6	0	0	0	0	393	475	0	0	38	14	
7	0	0	0	0	576	472	0	410	38	14	
8	0	0	0	0	663	474	0	1018	38	14	
9	0	0	0	0	671	475	0	1018	38	14	
10	0	0	0	0	873	485	0	1018	37	14	
11	0	0	0	0	849	498	0	1018	38	14	
12	0	0	0	0	829	515	0	1018	38	14	
13	0	0	0	0	634	523	0	1018	38	14	
14	0	0	0	0	432	526	0	1018	38	14	
15	0	0	0	0	427	526	0	504	38	14	
0	0	0	0	0	455	525	0	0	38	14	
1	0	0	0	0	456	526	0	0	38	14	
2	0	0	0	0	463	524	0	0	37	14	
3	0	0	0	0	439	524	0	0	38	14	
4	0	0	0	0	450	523	0	0	38	14	
5	0	0	0	0	420	522	0	0	38	14	
6	0	0	0	0	428	520	0	0	38	14	
7	0	0	0	0	268	513	0	0	38	14	
8	0	0	0	0	153	499	0	0	38	14	
9	0	0	0	0	248	485	0	0	38	14	
10	0	0	0	0	389	476	0	0	37	14	
11	0	0	0	0	576	473	0	701	38	14	
12	0	0	0	0	654	474	0	1018	38	14	
13	0	0	0	0	665	476	0	1018	38	14	
14	0	0	0	0	870	487	0	1018	38	14	
15	0	0	0	0	844	500	0	1018	38	14	
0	0	0	0	0	830	516	0	1018	38	14	
1	0	0	0	0	636	525	0	1018	38	14	
2	0	0	0	0	433	525	0	1018	37	14	
3	0	0	0	0	423	526	0	1018	38	14	
4	0	0	0	0	458	526	0	0	38	14	
5	0	0	0	0	457	527	0	0	38	14	
6	0	0	0	0	459	528	0	0	38	14	
7	0	0	0	0	446	527	0	0	38	14	
8	0	0	0	0	449	526	0	0	38	14	
9	0	0	0	0	423	524	0	0	38	14	
10	0	0	0	0	433	521	0	0	37	14	
11	0	0	0	0	268	515	0	0	38	14	
12	0	0	0	0	160	500	0	0	38	14	
13	0	0	0	0	228	487	0	0	38	14	
14	0	0	0	0	394	475	0	0	38	14	
15	0	0	0	0	566	473	0	846	38	14	
0	0	0	0	0	654	473	0	1018	38	14	
1	0	0	0	0	669	476	0	1018	38	13	
2	0	0	0	0	877	487	0	1018	37	13	
3	0	0	0	0	850	501	0	1018	38	13	
4	0	0	0	0	832	515	0	1018	38	13	
5	0	0	0	0	638	523	0	1018	38	13	
6	0	0	0	0	431	526	0	1018	38	13	
7	0	0	0	0	426	527	0	1018	38	13	
8	0	0	0	0	457	526	0	0	38	13	
9	0	0	0	0	459	526	0	0	38	13	
10	0	0	0	0	449	526	0	0	37	13	
11	0	0	0	0	446	526	0	0	38	13	
12	0	0	0	0	447	524	0	0	38	13	
13	0	0	0	0	422	523	0	0	38	13	
14	0	0	0	0	433	521	0	0	38	13	
15	0	0	0	0	264	514	0	0	38	13	
0	0	0	0	0	145	499	0	0	38	13	
1	0	0	0	0	241	486	0	0	38	13	
2	0	0	0	0	395	476	0	0	37	13	
3	0	0	0	0	575	473	0	1018	38	13	
4	0	0	0	0	654	476	0	1018	38	13	
5	0	0	0	0	662	477	0	1018	38	13	
6	0	0	0	0	868	487	0	1018	38	13	
7	0	0	0	0	842	500	0	1018	38	13	
8	0	0	0	0	836	513	0	1018	38	13	
9	0	0	0	0	641	523	0	1018	38	13	
10	0	0	0	0	430	525	0	1018	37	13	
11	0	0	0	0	431	525	0	1018	38	13	
12	0	0	0	0	452	526	0	477	38	13	
13	0	0	0	0	459	525	0	0	38	13	
14	0	0	0	0	459	524	0	0	38	13	
15	0	0	0	0	445	527	0	0	38	13	
0	0	0	0	0	451	528	0	0	38	13	
1	0	0	0	0	419	525	0	0	38	13	
2	0	0	0	0	435	524	0	0	37	13	
3	0	0	0	0	272	517	0	0	38	13	
4	0	0	0	0	156	503	0	0	38	13	
5	0	0	0	0	237	489	0	0	38	13	
6	0	0	0	0	387	479	0	0	38	13	
7	0	0	0	0	574	476	0	1018	38	13	
8	0	0	0	0	648	478	0	1018	38	13	
9	0	0	0	0	671	480	0	1018	38	13	
10	0	0	0	0	870	490	0	1018	37	13	
11	0	0	0	0	845	502	0	1018	38	13	
12	0	0	0	0	835	516	0	1018	38	13	
13	0	0	0	0	637	526	0	1018	38	13	
14	0	0	0	0	441	528	0	1018	38	13	
15	0	0	0	0	423	528	0	1018	38	13	
0	0	0	0	0	449	527	0	639	38	13	
1	0	0	0	0	455	527	0	0	38	13	
2	0	0	0	0	457	526	0	0	37	13	
3	0	0	0	0	449	526	0	0	38	13	
4	0	0	0	0	450	527	0	0	38	13	
5	0	0	0	0	427	526	0	0	38	13	
6	0	0	0	0	433	523	0	0	38	13	
7	0	0	0	0	273	515	0	0	38	13	
8	0	0	0	0	156	501	0	0	38	13	
9	0	0	0	0	240	487	0	0	38	13	
10	0	0	0	0	387	477	0	0	37	13	
11	0	0	0	0	572	475	0	1018	38	13	
12	0	0	0	0	650	475	0	1018	38	13	
13	0	0	0	0	659	477	0	1018	38	13	
14	0	0	0	0	868	489	0	1018	38	13	
15	0	0	0	0	845	501	0	1018	38	13	
0	0	0	0	0	832	515	0	1018	38	13	
1	0	0	0	0	640	526	0	1018	38	13	
2	0	0	0	0	440	529	0	1018	37	13	
3	0	0	0	0	432	528	0	1018	38	13	
4	0	0	0	0	451	527	0	1018	38	13	
5	0	0	0	0	461	525	0	0	38	13	
6	0	0	0	0	456	526	0	0	38	13	
7	0	0	0	0	445	527	0	0	38	13	
8	0	0	0	0	448	526	0	0	38	13	
9	0	0	0	0	419	523	0	0	38	13	
10	0	0	0	0	428	521	0	0	37	13	
11	0	0	0	0	266	516	0	0	38	13	
12	0	0	0	0	159	501	0	0	38	13	
13	0	0	0	0	240	487	0	0	38	13	
14	0	0	0	0	387	477	0	0	38	13	
15	0	0	0	0	571	475	0	1018	38	13	
0	0	0	0	0	655	474	0	1018	38	13	
1	0	0	0	0	670	476	0	1018	38	13	
2	0	0	0	0	873	488	0	1018	37	13	
3	0	0	0	0	844	500	0	1018	38	13	
4	0	0	0	0	842	516	0	1018	38	13	
5	0	0	0	0	643	526	0	1018	38	13	
6	0	0	0	0	439	528	0	1018	38	13	
7	0	0	0	0	423	528	0	1018	38	13	
8	0	0	0	0	447	529	0	1018	38	13	
9	0	0	0	0	455	529	0	26	38	13	
10	0	0	0	0	456	529	0	0	37	13	
11	0	0	0	0	449	531	0	0	38	13	
12	0	0	0	0	446	531	0	0	38	13	
13	0	0	0	0	423	527	0	0	38	13	
14	0	0	0	0	426	526	0	0	38	13	
15	0	0	0	0	271	519	0	0	38	13	
0	0	0	0	0	152	504	0	0	38	13	
1	0	0	0	0	236	488	0	0	38	13	
2	0	0	0	0	391	478	0	0	37	13	
3	0	0	0	0	575	474	0	1018	38	13	
4	0	0	0	0	652	475	0	1018	38	13	
5	0	0	0	0	665	478	0	1018	38	13	
6	0	0	0	0	869	490	0	1018	38	13	
7	0	0	0	0	851	503	0	1018	38	13	
8	0	0	0	0	836	518	0	1018	38	13	
9	0	0	0	0	637	526	0	1018	38	13	
10	0	0	0	0	440	526	0	1018	37	13	
11	0	0	0	0	420	525	0	1018	38	13	
12	0	0	0	0	452	525	0	1018	38	12	
13	0	0	0	0	459	526	0	40	38	13	
14	0	0	0	0	456	525	0	0	38	12	
15	0	0	0	0	450	526	0	0	38	12	
0	0	0	0	0	451	526	0	0	38	12	
1	0	0	0	0	419	524	0	0	38	12	
2	0	0	0	0	437	521	0	0	37	12	
3	0	0	0	0	278	515	0	0	38	12	
4	0	0	0	0	155	500	0	0	38	12	
5	0	0	0	0	237	486	0	0	38	12	
6	0	0	0	0	377	475	0	0	38	12	
7	0	0	0	0	566	473	0	1018	38	12	
8	0	0	0	0	649	474	0	1018	38	12	
9	0	0	0	0	658	474	0	1018	38	12	
10	0	0	0	0	875	485	0	1018	37	12	
11	0	0	0	0	851	499	0	1018	38	12	
12	0	0	0	0	831	515	0	1018	38	12	
13	0	0	0	0	632	526	0	1018	38	12	
14	0	0	0	0	443	527	0	1018	38	12	
15	0	0	0	0	427	527	0	1018	38	12	
0	0	0	0	0	456	527	0	1018	38	12	
1	0	0	0	0	450	527	0	27	38	12	
2	0	0	0	0	458	528	0	0	37	12	
3	0	0	0	0	441	527	0	0	38	12	
4	0	0	0	0	450	526	0	0	38	12	
5	0	0	0	0	419	525	0	0	38	12	
6	0	0	0	0	430	521	0	0	38	12	
7	0	0	0	0	278	515	0	0	38	12	
8	0	0	0	0	163	501	0	0	38	12	
9	0	0	0	0	234	487	0	0	38	12	
10	0	0	0	0	396	478	0	0	37	12	
11	0	0	0	0	576	475	0	1018	38	12	
12	0	0	0	0	652	476	0	1018	38	12	
13	0	0	0	0	664	477	0	1018	38	12	
14	0	0	0	0	872	487	0	1018	38	12	
15	0	0	0	0	843	500	0	1018	38	12	
0	0	0	0	0	841	514	0	1018	38	12	
1	0	0	0	0	639	525	0	1018	38	12	
2	0	0	0	0	438	526	0	1018	37	12	
3	0	0	0	0	421	526	0	1018	38	12	
4	0	0	0	0	453	526	0	1018	38	12	
5	0	0	0	0	460	525	0	0	38	12	
6	0	0	0	0	457	525	0	0	38	12	
7	0	0	0	0	443	524	0	0	38	12	
8	0	0	0	0	450	524	0	0	38	12	
9	0	0	0	0	420	525	0	0	38	12	
10	0	0	0	0	432	521	0	0	37	12	
11	0	0	0	0	280	515	0	0	38	12	
12	0	0	0	0	148	499	0	0	38	12	
13	0	0	0	0	235	485	0	0	38	12	
14	0	0	0	0	385	476	0	0	38	12	
15	0	0	0	0	573	474	0	1018	38	12	
0	0	0	0	0	656	475	0	1018	38	12	
1	0	0	0	0	662	478	0	1018	38	12	
2	0	0	0	0	875	487	0	1018	37	12	
3	0	0	0	0	843	500	0	1018	38	12	
4	0	0	0	0	836	515	0	1018	38	12	
5	0	0	0	0	646	525	0	1018	38	12	
6	0	0	0	0	439	527	0	1018	38	12	
7	0	0	0	0	422	527	0	1018	38	12	
8	0	0	0	0	458	528	0	1018	38	12	
9	0	0	0	0	451	527	0	4	38	12	
10	0	0	0	0	454	527	0	0	37	12	
11	0	0	0	0	445	524	0	0	38	12	
12	0	0	0	0	451	525	0	0	38	12	
13	0	0	0	0	424	522	0	0	38	12	
14	0	0	0	0	428	518	0	0	38	12	
15	0	0	0	0	284	513	0	0	38	12	
0	0	0	0	0	148	500	0	0	38	12	
1	0	0	0	0	242	487	0	0	38	12	
2	0	0	0	0	374	477	0	0	37	12	
3	0	0	0	0	563	476	0	1018	38	12	
4	0	0	0	0	655	477	0	1018	38	12	
5	0	0	0	0	664	480	0	1018	38	12	
6	0	0	0	0	868	488	0	1018	38	12	
7	0	0	0	0	844	502	0	1018	38	12	
8	0	0	0	0	837	516	0	1018	38	12	
9	0	0	0	0	646	526	0	1018	38	12	
10	0	0	0	0	437	526	0	1018	37	12	
11	0	0	0	0	429	526	0	1018	38	12	
12	0	0	0	0	442	526	0	1018	38	12	
13	0	0	0	0	454	524	0	0	38	12	
14	0	0	0	0	455	526	0	0	38	12	
15	0	0	0	0	450	526	0	0	38	12	
0	0	0	0	0	448	526	0	0	38	12	
1	0	0	0	0	420	525	0	0	38	12	
2	0	0	0	0	437	521	0	0	37	12	
3	0	0	0	0	281	516	0	0	38	12	
4	0	0	0	0	151	502	0	0	38	12	
5	0	0	0	0	235	487	0	0	38	12	
6	0	0	0	0	374	475	0	0	38	12	
7	0	0	0	0	566	471	0	1018	38	12	
8	0	0	0	0	657	472	0	1018	38	12	
9	0	0	0	0	665	475	0	1018	38	12	
10	0	0	0	0	875	487	0	1018	37	12	
11	0	0	0	0	848	499	0	1018	38	12	
12	0	0	0	0	832	513	0	1018	38	12	
13	0	0	0	0	637	525	0	1018	38	12	
14	0	0	0	0	441	527	0	1018	38	12	
15	0	0	0	0	421	526	0	1018	38	12	
0	0	0	0	0	449	527	0	1018	38	12	
1	0	0	0	0	454	527	0	0	38	12	
2	0	0	0	0	458	526	0	0	37	12	
3	0	0	0	0	455	528	0	0	38	12	
4	0	0	0	0	454	529	0	0	38	12	
5	0	0	0	0	421	527	0	0	38	12	
6	0	0	0	0	435	525	0	0	38	12	
7	0	0	0	0	279	518	0	0	38	12	
8	0	0	0	0	156	504	0	0	38	12	
9	0	0	0	0	239	488	0	0	38	12	
10	0	0	0	0	373	477	0	0	37	12	
11	0	0	0	0	569	475	0	1018	38	12	
12	0	0	0	0	652	475	0	1018	38	12	
13	0	0	0	0	663	477	0	1018	38	12	
14	0	0	0	0	868	490	0	1018	38	12	
15	0	0	0	0	853	502	0	1018	38	12	
0	0	0	0	0	840	516	0	1018	38	12	
1	0	0	0	0	643	525	0	1018	38	12	
2	0	0	0	0	440	527	0	1018	37	12	
3	0	0	0	0	424	527	0	1018	38	12	
4	0	0	0	0	444	528	0	1018	38	12	
5	0	0	0	0	451	527	0	0	38	12	
6	0	0	0	0	460	527	0	0	38	12	
7	0	0	0	0	446	527	0	0	38	12	
8	0	0	0	0	450	527	0	0	38	12	
9	0	0	0	0	420	524	0	0	38	12	
10	0	0	0	0	424	521	0	0	37	12	
11	0	0	0	0	291	513	0	0	38	12	
12	0	0	0	0	157	497	0	0	38	12	
13	0	0	0	0	230	483	0	0	38	12	
14	0	0	0	0	373	473	0	0	38	12	
15	0	0	0	0	571	470	0	1018	38	12	
0	0	0	0	0	648	472	0	1018	38	12	
1	0	0	0	0	665	475	0	1018	38	12	
2	0	0	0	0	874	485	0	1018	37	12	
3	0	0	0	0	845	498	0	1018	38	12	
4	0	0	0	0	840	515	0	1018	38	12	
5	0	0	0	0	642	526	0	1018	38	12	
6	0	0	0	0	443	528	0	1018	38	12	
7	0	0	0	0	423	528	0	1018	38	12	
8	0	0	0	0	450	529	0	1018	38	12	
9	0	0	0	0	456	529	0	0	38	12	
10	0	0	0	0	463	528	0	0	37	12	
11	0	0	0	0	455	529	0	0	38	12	
12	0	0	0	0	452	529	0	0	38	12	
13	0	0	0	0	418	527	0	0	38	12	
14	0	0	0	0	430	523	0	0	38	12	
15	0	0	0	0	279	516	0	0	38	12	
0	0	0	0	0	157	502	0	0	38	12	
1	0	0	0	0	233	487	0	0	38	12	
2	0	0	0	0	380	476	0	0	37	12	
3	0	0	0	0	564	473	0	1018	38	12	
4	0	0	0	0	654	473	0	1018	38	12	
5	0	0	0	0	654	477	0	1018	38	12	
6	0	0	0	0	874	488	0	1018	38	12	
7	0	0	0	0	846	501	0	1018	38	12	
8	0	0	0	0	839	517	0	1018	38	12	
9	0	0	0	0	644	525	0	1018	38	12	
10	0	0	0	0	440	528	0	1018	37	12	
11	0	0	0	0	416	527	0	1018	38	12	
12	0	0	0	0	448	527	0	1018	38	12	
13	0	0	0	0	458	527	0	0	38	12	
14	0	0	0	0	458	527	0	0	38	12	
15	0	0	0	0	454	526	0	0	38	12	
0	0	0	0	0	452	525	0	0	38	12	
1	0	0	0	0	432	524	0	0	38	12	
2	0	0	0	0	426	521	0	0	37	12	
3	0	0	0	0	281	517	0	0	38	12	
4	0	0	0	0	155	503	0	0	38	12	
5	0	0	0	0	228	489	0	0	38	12	
6	0	0	0	0	370	480	0	0	38	12	
7	0	0	0	0	569	476	0	1018	38	12	
8	0	0	0	0	643	477	0	1018	38	12	
9	0	0	0	0	657	480	0	1018	38	12	
10	0	0	0	0	873	489	0	1018	37	12	
11	0	0	0	0	849	499	0	1018	38	12	
12	0	0	0	0	845	514	0	1018	38	12	
13	0	0	0	0	648	526	0	1018	38	12	
14	0	0	0	0	447	529	0	1018	38	12	
15	0	0	0	0	422	528	0	1018	38	12	
0	0	0	0	0	451	530	0	1018	38	12	
1	0	0	0	0	449	529	0	0	38	12	
2	0	0	0	0	456	528	0	0	37	12	
3	0	0	0	0	458	529	0	0	38	12	
4	0	0	0	0	450	527	0	0	38	12	
5	0	0	0	0	427	524	0	0	38	12	
6	0	0	0	0	429	524	0	0	38	12	
7	0	0	0	0	283	517	0	0	38	12	
8	0	0	0	0	149	503	0	0	38	12	
9	0	0	0	0	224	487	0	0	38	12	
10	0	0	0	0	373	474	0	0	37	12	
11	0	0	0	0	567	472	0	1018	38	12	
12	0	0	0	0	645	474	0	1018	38	12	
13	0	0	0	0	655	475	0	1018	38	13	
14	0	0	0	0	858	485	0	1018	38	12	
15	0	0	0	0	846	496	0	1018	38	12	
0	0	0	0	0	841	513	0	1018	38	12	
1	0	0	0	0	652	523	0	1018	38	12	
2	0	0	0	0	451	524	0	1018	37	12	
3	0	0	0	0	420	523	0	1018	38	13	
4	0	0	0	0	460	524	0	1018	38	13	
5	0	0	0	0	454	521	0	0	38	13	
6	0	0	0	0	459	524	0	0	38	13	
7	0	0	0	0	455	524	0	0	38	13	
8	0	0	0	0	454	523	0	0	38	13	
9	0	0	0	0	416	521	0	0	38	13	
10	0	0	0	0	428	519	0	0	37	13	
11	0	0	0	0	289	514	0	0	38	13	
12	0	0	0	0	150	501	0	0	38	13	
13	0	0	0	0	231	486	0	0	38	13	
14	0	0	0	0	369	476	0	0	38	13	
15	0	0	0	0	561	471	0	1018	38	13	
0	0	0	0	0	651	472	0	1018	38	13	
1	0	0	0	0	658	474	0	1018	38	13	
2	0	0	0	0	869	486	0	1018	37	13	
3	0	0	0	0	839	498	0	1018	38	13	
4	0	0	0	0	842	513	0	1018	38	13	
5	0	0	0	0	653	524	0	1018	38	13	
6	0	0	0	0	447	526	0	1018	38	13	
7	0	0	0	0	423	527	0	1018	38	13	
8	0	0	0	0	455	528	0	612	38	13	
9	0	0	0	0	451	527	0	0	38	13	
10	0	0	0	0	455	527	0	0	37	13	
11	0	0	0	0	458	529	0	0	38	13	
12	0	0	0	0	447	528	0	0	38	13	
13	0	0	0	0	425	526	0	0	38	13	
14	0	0	0	0	425	522	0	0	38	13	
15	0	0	0	0	289	515	0	0	38	13	
0	0	0	0	0	149	500	0	0	38	13	
1	0	0	0	0	222	487	0	0	38	13	
2	0	0	0	0	370	477	0	0	37	13	
3	0	0	0	0	562	475	0	1002	38	13	
4	0	0	0	0	655	475	0	1018	38	13	
5	0	0	0	0	664	478	0	1018	38	13	
6	0	0	0	0	864	488	0	1018	38	13	
7	0	0	0	0	844	499	0	1018	38	13	
8	0	0	0	0	844	515	0	1018	38	13	
9	0	0	0	0	649	526	0	1018	38	13	
10	0	0	0	0	450	527	0	1018	37	13	
11	0	0	0	0	422	527	0	1018	38	13	
12	0	0	0	0	460	527	0	613	38	13	
13	0	0	0	0	461	527	0	0	38	13	
14	0	0	0	0	457	528	0	0	38	13	
15	0	0	0	0	462	528	0	0	38	13	
0	0	0	0	0	455	526	0	0	38	13	
1	0	0	0	0	415	523	0	0	38	13	
2	0	0	0	0	430	519	0	0	37	13	
3	0	0	0	0	284	514	0	0	38	13	
4	0	0	0	0	148	502	0	0	38	13	
5	0	0	0	0	227	488	0	0	38	13	
6	0	0	0	0	366	479	0	0	38	13	
7	0	0	0	0	558	477	0	858	38	13	
8	0	0	0	0	646	477	0	1018	38	13	
9	0	0	0	0	654	480	0	1018	38	13	
10	0	0	0	0	864	490	0	1018	37	13	
11	0	0	0	0	840	499	0	1018	38	13	
12	0	0	0	0	838	515	0	1018	38	13	
13	0	0	0	0	657	524	0	1018	38	13	
14	0	0	0	0	451	527	0	1018	38	13	
15	0	0	0	0	427	527	0	1018	38	13	
0	0	0	0	0	459	527	0	615	38	13	
1	0	0	0	0	459	525	0	0	38	13	
2	0	0	0	0	455	525	0	0	37	13	
3	0	0	0	0	459	525	0	0	38	13	
4	0	0	0	0	455	525	0	0	38	13	
5	0	0	0	0	422	525	0	0	38	13	
6	0	0	0	0	427	523	0	0	38	13	
7	0	0	0	0	287	516	0	0	38	13	
8	0	0	0	0	147	500	0	0	38	13	
9	0	0	0	0	223	485	0	0	38	13	
10	0	0	0	0	368	475	0	0	37	13	
11	0	0	0	0	560	473	0	726	38	13	
12	0	0	0	0	650	472	0	1018	38	13	
13	0	0	0	0	655	474	0	1018	38	13	
14	0	0	0	0	867	487	0	1018	38	13	
15	0	0	0	0	842	499	0	1018	38	13	
0	0	0	0	0	835	514	0	1018	38	13	
1	0	0	0	0	656	525	0	1018	38	13	
2	0	0	0	0	455	528	0	1018	37	13	
3	0	0	0	0	425	528	0	1018	38	13	
4	0	0	0	0	457	528	0	1018	38	13	
5	0	0	0	0	451	528	0	297	38	13	
6	0	0	0	0	454	529	0	0	38	13	
7	0	0	0	0	460	530	0	0	38	13	
8	0	0	0	0	453	528	0	0	38	13	
9	0	0	0	0	418	525	0	0	38	13	
10	0	0	0	0	430	522	0	0	37	13	
11	0	0	0	0	294	518	0	0	38	13	
12	0	0	0	0	145	503	0	0	38	13	
13	0	0	0	0	225	489	0	0	38	13	
14	0	0	0	0	362	478	0	1018	38	13	
15	0	0	0	0	558	474	0	1018	38	13	
0	0	0	0	0	647	476	0	1018	38	13	
1	0	0	0	0	646	479	0	1018	38	13	
2	0	0	0	0	865	487	0	1018	37	13	
3	0	0	0	0	848	500	0	1018	38	13	
4	0	0	0	0	838	514	0	1018	38	13	
5	0	0	0	0	655	523	0	1018	38	13	
6	0	0	0	0	459	526	0	1018	38	13	
7	0	0	0	0	434	527	0	1018	38	13	
8	0	0	0	0	451	528	0	1018	38	13	
9	0	0	0	0	457	529	0	1018	38	13	
10	0	0	0	0	459	527	0	1018	37	13	
11	0	0	0	0	459	526	0	1018	38	13	
12	0	0	0	0	451	525	0	1018	38	13	
13	0	0	0	0	426	524	0	565	38	13	
14	0	0	0	0	420	523	0	256	38	13	
15	0	0	0	0	288	516	0	144	38	13	
0	0	0	0	0	145	503	0	455	38	13	
1	0	0	0	0	231	489	0	1018	38	13	
2	0	0	0	0	367	477	0	1018	37	13	
3	0	0	0	0	563	473	0	1018	38	13	
4	0	0	0	0	643	473	0	1018	38	13	
5	0	0	0	0	650	475	0	1018	38	13	
6	0	0	0	0	860	485	0	1018	38	13	
7	0	0	0	0	833	498	0	1018	38	13	
8	0	0	0	0	839	515	0	1018	38	13	
9	0	0	0	0	661	527	0	1018	38	13	
10	0	0	0	0	462	529	0	1018	37	13	
11	0	0	0	0	433	529	0	1018	38	13	
12	0	0	0	0	452	531	0	1018	38	13	
13	0	0	0	0	452	530	0	1018	38	13	
14	0	0	0	0	452	529	0	1018	38	13	
15	0	0	0	0	460	530	0	1018	38	13	
0	0	0	0	0	452	530	0	353	38	13	
1	0	0	0	0	424	528	0	0	38	13	
2	0	0	0	0	424	524	0	0	37	13	
3	0	0	0	0	292	518	0	0	38	13	
4	0	0	0	0	153	504	0	0	38	13	
5	0	0	0	0	228	491	0	236	38	13	
6	0	0	0	0	362	479	0	1018	38	13	
7	0	0	0	0	552	475	0	1018	38	13	
8	0	0	0	0	639	476	0	1018	38	13	
9	0	0	0	0	656	477	0	1018	38	13	
10	0	0	0	0	859	486	0	1018	37	13	
11	0	0	0	0	835	497	0	1018	38	13	
12	0	0	0	0	832	512	0	1018	38	13	
13	0	0	0	0	654	523	0	1018	38	13	
14	0	0	0	0	466	525	0	1018	38	13	
15	0	0	0	0	428	526	0	1018	38	13	
0	0	0	0	0	456	525	0	1018	38	13	
1	0	0	0	0	455	526	0	1018	38	13	
2	0	0	0	0	466	527	0	466	37	13	
3	0	0	0	0	464	528	0	0	38	13	
4	0	0	0	0	455	528	0	0	38	13	
5	0	0	0	0	420	524	0	0	38	13	
6	0	0	0	0	427	524	0	0	38	13	
7	0	0	0	0	295	519	0	0	38	13	
8	0	0	0	0	147	506	0	0	38	13	
9	0	0	0	0	228	492	0	0	38	13	
10	0	0	0	0	355	478	0	353	37	13	
11	0	0	0	0	553	474	0	1018	38	13	
12	0	0	0	0	643	474	0	1018	38	13	
13	0	0	0	0	652	477	0	1018	38	13	
14	0	0	0	0	859	487	0	1018	38	13	
15	0	0	0	0	834	498	0	1018	38	13	
0	0	0	0	0	839	513	0	1018	38	13	
1	0	0	0	0	665	526	0	1018	38	13	
2	0	0	0	0	467	528	0	1018	37	13	
3	0	0	0	0	432	527	0	1018	38	13	
4	0	0	0	0	457	526	0	1018	38	13	
5	0	0	0	0	456	528	0	7	38	13	
6	0	0	0	0	456	527	0	0	38	13	
7	0	0	0	0	454	529	0	0	38	13	
8	0	0	0	0	454	528	0	0	38	13	
9	0	0	0	0	423	525	0	0	38	13	
10	0	0	0	0	431	523	0	0	37	13	
11	0	0	0	0	293	518	0	0	38	13	
12	0	0	0	0	154	503	0	0	38	13	
13	0	0	0	0	230	489	0	0	38	13	
14	0	0	0	0	355	479	0	0	38	13	
15	0	0	0	0	552	475	0	1013	38	13	
0	0	0	0	0	638	475	0	1018	38	13	
1	0	0	0	0	648	475	0	1018	38	13	
2	0	0	0	0	856	485	0	1018	37	13	
3	0	0	0	0	834	498	0	1018	38	13	
4	0	0	0	0	835	511	0	1018	38	13	
5	0	0	0	0	657	521	0	1018	38	13	
6	0	0	0	0	459	526	0	1018	38	13	
7	0	0	0	0	428	526	0	1018	38	13	
8	0	0	0	0	460	525	0	337	38	13	
9	0	0	0	0	457	526	0	0	38	13	
10	0	0	0	0	463	526	0	0	37	13	
11	0	0	0	0	461	528	0	0	38	13	
12	0	0	0	0	454	527	0	0	38	13	
13	0	0	0	0	424	523	0	0	38	13	
14	0	0	0	0	423	521	0	0	38	13	
15	0	0	0	0	295	515	0	0	38	13	
0	0	0	0	0	148	501	0	0	38	13	
1	0	0	0	0	225	487	0	0	38	13	
2	0	0	0	0	352	476	0	0	38	13	
3	0	0	0	0	554	473	0	617	38	13	
4	0	0	0	0	642	474	0	1018	38	13	
5	0	0	0	0	643	475	0	1018	38	13	
6	0	0	0	0	857	485	0	1018	38	13	
7	0	0	0	0	836	496	0	1018	38	13	
8	0	0	0	0	836	512	0	1018	38	13	
9	0	0	0	0	663	521	0	1018	38	13	
10	0	0	0	0	470	526	0	1018	37	13	
11	0	0	0	0	427	526	0	1018	38	13	
12	0	0	0	0	462	524	0	487	38	12	
13	0	0	0	0	460	525	0	0	38	13	
14	0	0	0	0	463	525	0	0	38	12	
15	0	0	0	0	461	526	0	0	38	12	
0	0	0	0	0	455	527	0	0	38	12	
1	0	0	0	0	420	526	0	0	38	12	
2	0	0	0	0	419	525	0	0	37	12	
3	0	0	0	0	295	518	0	0	38	12	
4	0	0	0	0	147	503	0	0	38	12	
5	0	0	0	0	224	488	0	0	38	12	
6	0	0	0	0	360	477	0	0	38	12	
7	0	0	0	0	553	473	0	0	38	12	
8	0	0	0	0	643	471	0	1018	38	12	
9	0	0	0	0	652	473	0	1018	38	12	
10	0	0	0	0	851	483	0	1018	37	12	
11	0	0	0	0	835	496	0	1018	38	12	
12	0	0	0	0	840	512	0	1018	38	12	
13	0	0	0	0	665	520	0	1018	38	12	
14	0	0	0	0	471	523	0	1018	38	12	
15	0	0	0	0	436	524	0	1018	38	12	
0	0	0	0	0	451	525	0	608	38	12	
1	0	0	0	0	453	527	0	0	38	12	
2	0	0	0	0	457	527	0	0	37	12	
3	0	0	0	0	462	527	0	0	38	12	
4	0	0	0	0	456	528	0	0	38	12	
5	0	0	0	0	425	526	0	0	38	12	
6	0	0	0	0	430	525	0	0	38	12	
7	0	0	0	0	300	520	0	0	38	12	
8	0	0	0	0	142	505	0	0	38	12	
9	0	0	0	0	223	491	0	0	38	12	
10	0	0	0	0	344	480	0	0	37	12	
11	0	0	0	0	548	475	0	479	38	12	
12	0	0	0	0	638	474	0	1018	38	12	
13	0	0	0	0	649	477	0	1018	38	12	
14	0	0	0	0	852	487	0	1018	38	12	
15	0	0	0	0	838	499	0	1018	38	12	
0	0	0	0	0	846	513	0	1018	38	12	
1	0	0	0	0	659	523	0	1018	38	12	
2	0	0	0	0	467	525	0	1018	37	12	
3	0	0	0	0	437	526	0	1018	38	12	
4	0	0	0	0	465	525	0	927	38	12	
5	0	0	0	0	448	525	0	0	38	12	
6	0	0	0	0	463	527	0	0	38	12	
7	0	0	0	0	458	528	0	0	38	12	
8	0	0	0	0	457	527	0	0	38	12	
9	0	0	0	0	416	526	0	0	38	12	
10	0	0	0	0	426	524	0	0	37	12	
11	0	0	0	0	302	520	0	0	38	12	
12	0	0	0	0	149	506	0	0	38	12	
13	0	0	0	0	233	489	0	0	38	12	
14	0	0	0	0	348	475	0	0	38	12	
15	0	0	0	0	550	471	0	113	38	12	
0	0	0	0	0	636	473	0	1018	38	12	
1	0	0	0	0	647	477	0	1018	38	12	
2	0	0	0	0	853	486	0	1018	37	12	
3	0	0	0	0	836	496	0	1018	38	12	
4	0	0	0	0	844	510	0	1018	38	12	
5	0	0	0	0	672	521	0	1018	38	12	
6	0	0	0	0	471	524	0	1018	38	12	
7	0	0	0	0	426	525	0	1018	38	12	
8	0	0	0	0	463	526	0	0	38	12	
9	0	0	0	0	460	524	0	0	38	12	
10	0	0	0	0	460	524	0	0	37	12	
11	0	0	0	0	463	523	0	0	38	12	
12	0	0	0	0	452	523	0	0	38	12	
13	0	0	0	0	419	522	0	0	38	12	
14	0	0	0	0	427	519	0	0	38	12	
15	0	0	0	0	309	513	0	0	38	12	
0	0	0	0	0	147	498	0	0	38	12	
1	0	0	0	0	222	485	0	0	38	12	
2	0	0	0	0	341	474	0	0	37	12	
3	0	0	0	0	550	471	0	0	38	12	
4	0	0	0	0	632	473	0	1018	38	12	
5	0	0	0	0	647	475	0	1018	38	12	
6	0	0	0	0	848	485	0	1018	38	12	
7	0	0	0	0	834	498	0	1018	38	12	
8	0	0	0	0	833	512	0	1018	38	12	
9	0	0	0	0	662	522	0	1018	38	12	
10	0	0	0	0	470	527	0	1018	37	12	
11	0	0	0	0	431	527	0	1018	38	12	
12	0	0	0	0	459	527	0	275	38	12	
13	0	0	0	0	463	527	0	0	38	12	
14	0	0	0	0	462	525	0	0	38	12	
15	0	0	0	0	467	525	0	0	38	12	
0	0	0	0	0	455	524	0	0	38	12	
1	0	0	0	0	423	524	0	0	38	12	
2	0	0	0	0	423	523	0	0	37	12	
3	0	0	0	0	307	516	0	0	38	12	
4	0	0	0	0	152	504	0	0	38	12	
5	0	0	0	0	221	487	0	0	38	12	
6	0	0	0	0	344	474	0	0	38	12	
7	0	0	0	0	542	472	0	606	38	12	
8	0	0	0	0	638	473	0	1018	38	12	
9	0	0	0	0	642	475	0	1018	38	12	
10	0	0	0	0	851	485	0	1018	37	12	
11	0	0	0	0	831	497	0	1018	38	12	
12	0	0	0	0	838	511	0	1018	38	12	
13	0	0	0	0	673	521	0	1018	38	12	
14	0	0	0	0	479	524	0	1018	38	12	
15	0	0	0	0	443	525	0	1018	38	12	
0	0	0	0	0	460	526	0	679	38	12	
1	0	0	0	0	461	527	0	0	38	12	
2	0	0	0	0	464	527	0	0	37	12	
3	0	0	0	0	461	527	0	0	38	12	
4	0	0	0	0	447	527	0	0	38	12	
5	0	0	0	0	415	525	0	0	38	12	
6	0	0	0	0	424	524	0	0	38	12	
7	0	0	0	0	305	519	0	0	38	12	
8	0	0	0	0	145	503	0	0	38	12	
9	0	0	0	0	220	489	0	0	38	12	
10	0	0	0	0	335	478	0	0	37	12	
11	0	0	0	0	543	473	0	1016	38	12	
12	0	0	0	0	636	473	0	1018	38	12	
13	0	0	0	0	647	476	0	1018	38	12	
14	0	0	0	0	850	485	0	1018	38	12	
15	0	0	0	0	835	496	0	1018	38	12	
0	0	0	0	0	839	510	0	1018	38	12	
1	0	0	0	0	664	521	0	1018	38	12	
2	0	0	0	0	472	525	0	1018	37	12	
3	0	0	0	0	436	525	0	1018	38	12	
4	0	0	0	0	465	527	0	1018	38	12	
5	0	0	0	0	460	527	0	412	38	12	
6	0	0	0	0	468	526	0	0	38	12	
7	0	0	0	0	461	526	0	0	38	12	
8	0	0	0	0	454	525	0	0	38	12	
9	0	0	0	0	413	524	0	0	38	12	
10	0	0	0	0	420	521	0	0	37	12	
11	0	0	0	0	310	516	0	0	38	12	
12	0	0	0	0	145	502	0	0	38	12	
13	0	0	0	0	219	486	0	0	38	12	
14	0	0	0	0	338	473	0	0	38	12	
15	0	0	0	0	546	468	0	1018	38	12	
0	0	0	0	0	639	468	0	1018	38	12	
1	0	0	0	0	647	472	0	1018	38	12	
2	0	0	0	0	842	481	0	1018	37	12	
3	0	0	0	0	832	496	0	1018	38	12	
4	0	0	0	0	830	510	0	1018	38	12	
5	0	0	0	0	669	521	0	1018	38	12	
6	0	0	0	0	489	524	0	1018	38	12	
7	0	0	0	0	439	525	0	1018	38	12	
8	0	0	0	0	473	524	0	1018	38	12	
9	0	0	0	0	457	526	0	587	38	12	
10	0	0	0	0	464	527	0	0	37	12	
11	0	0	0	0	468	526	0	0	38	12	
12	0	0	0	0	450	527	0	0	38	12	
13	0	0	0	0	413	527	0	0	38	12	
14	0	0	0	0	419	526	0	0	38	12	
15	0	0	0	0	304	519	0	0	38	12	
0	0	0	0	0	150	505	0	0	38	12	
1	0	0	0	0	214	491	0	0	38	12	
2	0	0	0	0	341	478	0	0	37	12	
3	0	0	0	0	536	474	0	1018	38	12	
4	0	0	0	0	633	473	0	1018	38	12	
5	0	0	0	0	650	476	0	1018	38	12	
6	0	0	0	0	847	487	0	1018	38	12	
7	0	0	0	0	833	500	0	1018	38	12	
8	0	0	0	0	835	515	0	1018	38	12	
9	0	0	0	0	672	524	0	1018	38	12	
10	0	0	0	0	489	527	0	1018	37	12	
11	0	0	0	0	445	527	0	1018	38	12	
12	0	0	0	0	463	526	0	1018	38	12	
13	0	0	0	0	455	526	0	703	38	12	
14	0	0	0	0	456	526	0	0	38	12	
15	0	0	0	0	452	527	0	0	38	12	
0	0	0	0	0	455	527	0	0	38	12	
1	0	0	0	0	418	527	0	0	38	12	
2	0	0	0	0	427	523	0	0	37	12	
3	0	0	0	0	312	517	0	0	38	12	
4	0	0	0	0	151	504	0	0	38	12	
5	0	0	0	0	216	489	0	0	38	12	
6	0	0	0	0	340	476	0	0	38	12	
7	0	0	0	0	539	471	0	1018	38	12	
8	0	0	0	0	636	471	0	1018	38	12	
9	0	0	0	0	646	474	0	1018	38	12	
10	0	0	0	0	845	483	0	1018	37	12	
11	0	0	0	0	838	496	0	1018	38	12	
12	0	0	0	0	837	512	0	1018	38	12	
13	0	0	0	0	670	523	0	1018	38	12	
14	0	0	0	0	488	526	0	1018	38	12	
15	0	0	0	0	431	526	0	1018	38	12	
0	0	0	0	0	470	527	0	1018	38	12	
1	0	0	0	0	464	527	0	1018	38	12	
2	0	0	0	0	461	528	0	0	37	12	
3	0	0	0	0	462	529	0	0	38	12	
4	0	0	0	0	455	527	0	0	38	12	
5	0	0	0	0	423	522	0	0	38	12	
6	0	0	0	0	427	520	0	0	38	12	
7	0	0	0	0	311	515	0	0	38	12	
8	0	0	0	0	152	503	0	0	38	12	
9	0	0	0	0	213	489	0	0	38	12	
10	0	0	0	0	339	476	0	0	37	12	
11	0	0	0	0	545	471	0	1018	38	12	
12	0	0	0	0	633	473	0	1018	38	12	
13	0	0	0	0	644	476	0	1018	38	12	
14	0	0	0	0	831	484	0	1018	38	12	
15	0	0	0	0	820	495	0	1018	38	12	
0	0	0	0	0	821	509	0	1018	38	12	
1	0	0	0	0	673	521	0	1018	38	12	
2	0	0	0	0	495	524	0	1018	37	12	
3	0	0	0	0	446	524	0	1018	38	12	
4	0	0	0	0	463	526	0	1018	38	12	
5	0	0	0	0	463	527	0	1018	38	12	
6	0	0	0	0	466	527	0	726	38	12	
7	0	0	0	0	464	528	0	10	38	12	
8	0	0	0	0	454	527	0	0	38	12	
9	0	0	0	0	416	526	0	0	38	12	
10	0	0	0	0	428	523	0	0	37	12	
11	0	0	0	0	318	517	0	0	38	12	
12	0	0	0	0	159	503	0	0	38	12	
13	0	0	0	0	219	489	0	0	38	12	
14	0	0	0	0	338	478	0	1018	38	12	
15	0	0	0	0	534	474	0	1018	38	12	
0	0	0	0	0	634	474	0	1018	38	12	
1	0	0	0	0	646	476	0	1018	38	12	
2	0	0	0	0	831	483	0	1018	37	12	
3	0	0	0	0	825	497	0	1018	38	12	
4	0	0	0	0	820	511	0	1018	38	12	
5	0	0	0	0	673	519	0	1018	38	12	
6	0	0	0	0	489	522	0	1018	38	12	
7	0	0	0	0	440	524	0	1018	38	12	
8	0	0	0	0	473	524	0	1018	38	12	
9	0	0	0	0	461	523	0	1018	38	12	
10	0	0	0	0	468	524	0	1018	37	12	
11	0	0	0	0	471	526	0	1018	38	12	
12	0	0	0	0	453	524	0	615	38	12	
13	0	0	0	0	426	523	0	208	38	12	
14	0	0	0	0	431	524	0	0	38	12	
15	0	0	0	0	317	519	0	0	38	12	
0	0	0	0	0	163	504	0	238	38	12	
1	0	0	0	0	231	490	0	1017	38	12	
2	0	0	0	0	337	480	0	1018	37	12	
3	0	0	0	0	533	475	0	1018	38	12	
4	0	0	0	0	626	474	0	1018	38	12	
5	0	0	0	0	642	476	0	1018	38	12	
6	0	0	0	0	825	483	0	1018	38	12	
7	0	0	0	0	816	495	0	1018	38	12	
8	0	0	0	0	819	510	0	1018	38	12	
9	0	0	0	0	673	521	0	1018	38	12	
10	0	0	0	0	487	524	0	1018	37	12	
11	0	0	0	0	446	525	0	1018	38	12	
12	0	0	0	0	467	526	0	1018	38	12	
13	0	0	0	0	458	525	0	1018	38	12	
14	0	0	0	0	461	526	0	1018	38	12	
15	0	0	0	0	476	527	0	1018	38	12	
0	0	0	0	0	457	526	0	1018	38	12	
1	0	0	0	0	416	526	0	1018	38	12	
2	0	0	0	0	423	524	0	690	37	12	
3	0	0	0	0	323	518	0	553	38	12	
4	0	0	0	0	158	506	0	752	38	12	
5	0	0	0	0	220	492	0	1018	38	12	
6	0	0	0	0	335	480	0	1018	38	12	
7	0	0	0	0	542	476	0	1018	38	12	
8	0	0	0	0	628	475	0	1018	38	12	
9	0	0	0	0	637	475	0	1018	38	12	
10	0	0	0	0	828	484	0	1018	37	12	
11	0	0	0	0	819	496	0	1018	38	12	
12	0	0	0	0	828	510	0	1018	38	12	
13	0	0	0	0	675	519	0	1018	38	12	
14	0	0	0	0	493	523	0	1018	38	12	
15	0	0	0	0	435	524	0	1018	38	12	
0	0	0	0	0	464	527	0	1018	38	12	
1	0	0	0	0	453	527	0	1018	38	12	
2	0	0	0	0	478	527	0	1018	37	12	
3	0	0	0	0	468	529	0	1018	38	12	
4	0	0	0	0	457	530	0	1018	38	12	
5	0	0	0	0	425	528	0	716	38	12	
6	0	0	0	0	418	526	0	441	38	12	
7	0	0	0	0	327	521	0	323	38	12	
8	0	0	0	0	156	508	0	520	38	12	
9	0	0	0	0	222	492	0	1018	38	12	
10	0	0	0	0	330	480	0	1018	37	12	
11	0	0	0	0	539	473	0	1018	38	12	
12	0	0	0	0	633	474	0	1018	38	12	
13	0	0	0	0	639	475	0	1018	38	12	
14	0	0	0	0	838	484	0	1018	38	12	
15	0	0	0	0	820	495	0	1018	38	12	
0	0	0	0	0	829	508	0	1018	38	12	
1	0	0	0	0	679	519	0	1018	38	12	
2	0	0	0	0	495	522	0	1018	37	12	
3	0	0	0	0	438	523	0	1018	38	12	
4	0	0	0	0	474	523	0	1018	38	12	
5	0	0	0	0	459	526	0	1018	38	12	
6	0	0	0	0	466	527	0	1018	38	12	
7	0	0	0	0	469	529	0	1018	38	12	
8	0	0	0	0	459	527	0	1018	38	12	
9	0	0	0	0	423	524	0	502	38	12	
10	0	0	0	0	425	523	0	189	37	12	
11	0	0	0	0	321	519	0	44	38	12	
12	0	0	0	0	157	505	0	230	38	12	
13	0	0	0	0	217	490	0	896	38	12	
14	0	0	0	0	328	478	0	1018	38	12	
15	0	0	0	0	535	473	0	1018	38	12	
0	0	0	0	0	624	473	0	1018	38	12	
1	0	0	0	0	647	475	0	1018	38	12	
2	0	0	0	0	825	485	0	1018	37	12	
3	0	0	0	0	818	497	0	1018	38	12	
4	0	0	0	0	829	510	0	1018	38	12	
5	0	0	0	0	680	522	0	1018	38	12	
6	0	0	0	0	499	524	0	1018	38	12	
7	0	0	0	0	439	525	0	1018	38	12	
8	0	0	0	0	468	526	0	1018	38	12	
9	0	0	0	0	462	527	0	1018	38	12	
10	0	0	0	0	458	529	0	1018	37	12	
11	0	0	0	0	472	530	0	1018	38	12	
12	0	0	0	0	454	529	0	352	38	12	
13	0	0	0	0	419	527	0	0	38	12	
14	0	0	0	0	424	524	0	0	38	12	
15	0	0	0	0	333	518	0	0	38	12	
0	0	0	0	0	160	505	0	0	38	12	
1	0	0	0	0	214	490	0	447	38	12	
2	0	0	0	0	325	478	0	1018	37	12	
3	0	0	0	0	533	474	0	1018	38	12	
4	0	0	0	0	629	475	0	1018	38	12	
5	0	0	0	0	639	476	0	1018	38	12	
6	0	0	0	0	821	484	0	1018	38	12	
7	0	0	0	0	819	495	0	1018	38	12	
8	0	0	0	0	833	510	0	1018	38	12	
9	0	0	0	0	675	519	0	1018	38	12	
10	0	0	0	0	500	522	0	1018	37	12	
11	0	0	0	0	441	523	0	1018	38	12	
12	0	0	0	0	472	524	0	1018	38	12	
13	0	0	0	0	461	526	0	1018	38	12	
14	0	0	0	0	466	527	0	1018	38	12	
15	0	0	0	0	467	529	0	1018	38	12	
0	0	0	0	0	450	527	0	245	38	12	
1	0	0	0	0	421	526	0	0	38	12	
2	0	0	0	0	420	525	0	0	37	12	
3	0	0	0	0	330	519	0	0	38	12	
4	0	0	0	0	158	506	0	0	38	12	
5	0	0	0	0	209	491	0	0	38	12	
6	0	0	0	0	323	479	0	1018	38	12	
7	0	0	0	0	533	473	0	1018	38	12	
8	0	0	0	0	625	473	0	1018	38	12	
9	0	0	0	0	646	473	0	1018	38	12	
10	0	0	0	0	825	482	0	1018	37	12	
11	0	0	0	0	823	494	0	1018	38	12	
12	0	0	0	0	827	506	0	1018	38	12	
13	0	0	0	0	679	518	0	1018	38	12	
14	0	0	0	0	500	523	0	1018	38	12	
15	0	0	0	0	437	524	0	1018	38	12	
0	0	0	0	0	465	528	0	1018	38	12	
1	0	0	0	0	461	529	0	1018	38	12	
2	0	0	0	0	472	528	0	1018	37	12	
3	0	0	0	0	469	527	0	620	38	12	
4	0	0	0	0	452	526	0	8	38	12	
5	0	0	0	0	416	526	0	0	38	12	
6	0	0	0	0	422	523	0	0	38	12	
7	0	0	0	0	331	519	0	0	38	12	
8	0	0	0	0	156	507	0	0	38	12	
9	0	0	0	0	217	492	0	0	38	12	
10	0	0	0	0	327	480	0	1007	37	12	
11	0	0	0	0	528	476	0	1018	38	12	
12	0	0	0	0	624	474	0	1018	38	12	
13	0	0	0	0	640	476	0	1018	38	12	
14	0	0	0	0	824	487	0	1018	38	12	
15	0	0	0	0	814	498	0	1018	38	12	
0	0	0	0	0	824	512	0	1018	38	11	
1	0	0	0	0	684	522	0	1018	38	11	
2	0	0	0	0	504	527	0	1018	37	11	
3	0	0	0	0	440	527	0	1018	38	11	
4	0	0	0	0	471	527	0	1018	38	11	
5	0	0	0	0	457	526	0	1018	38	11	
6	0	0	0	0	467	527	0	1018	38	11	
7	0	0	0	0	472	527	0	456	38	11	
8	0	0	0	0	457	526	0	0	38	11	
9	0	0	0	0	422	526	0	0	38	11	
10	0	0	0	0	418	524	0	0	37	11	
11	0	0	0	0	327	519	0	0	38	11	
12	0	0	0	0	155	507	0	0	38	11	
13	0	0	0	0	213	491	0	0	38	11	
14	0	0	0	0	327	477	0	927	38	11	
15	0	0	0	0	534	472	0	1018	38	11	
0	0	0	0	0	620	475	0	1018	38	11	
1	0	0	0	0	645	475	0	1018	38	11	
2	0	0	0	0	819	484	0	1018	37	11	
3	0	0	0	0	818	494	0	1018	38	11	
4	0	0	0	0	830	508	0	1018	38	11	
5	0	0	0	0	682	521	0	1018	38	11	
6	0	0	0	0	498	526	0	1018	38	11	
7	0	0	0	0	443	525	0	1018	38	11	
8	0	0	0	0	469	525	0	1018	38	11	
9	0	0	0	0	461	526	0	1018	38	11	
10	0	0	0	0	470	527	0	657	37	11	
11	0	0	0	0	477	527	0	0	38	11	
12	0	0	0	0	457	526	0	0	38	11	
13	0	0	0	0	416	524	0	0	38	11	
14	0	0	0	0	422	521	0	0	38	11	
15	0	0	0	0	335	518	0	0	38	11	
0	0	0	0	0	160	506	0	0	38	11	
1	0	0	0	0	209	490	0	0	38	11	
2	0	0	0	0	316	476	0	474	37	11	
3	0	0	0	0	527	472	0	1018	38	11	
4	0	0	0	0	621	472	0	1018	38	11	
5	0	0	0	0	640	474	0	1018	38	11	
6	0	0	0	0	830	484	0	1018	38	11	
7	0	0	0	0	820	495	0	1018	38	11	
8	0	0	0	0	826	509	0	1018	38	11	
9	0	0	0	0	679	519	0	1018	38	11	
10	0	0	0	0	507	521	0	1018	37	11	
11	0	0	0	0	443	521	0	1018	38	11	
12	0	0	0	0	468	523	0	1018	38	11	
13	0	0	0	0	471	523	0	1018	38	11	
14	0	0	0	0	473	526	0	189	38	11	
15	0	0	0	0	470	526	0	0	38	11	
0	0	0	0	0	451	526	0	0	38	11	
1	0	0	0	0	423	524	0	0	38	11	
2	0	0	0	0	423	522	0	0	37	11	
3	0	0	0	0	330	519	0	0	38	11	
4	0	0	0	0	151	505	0	0	38	11	
5	0	0	0	0	208	491	0	0	38	11	
6	0	0	0	0	320	480	0	0	38	11	
7	0	0	0	0	527	476	0	1018	38	11	
8	0	0	0	0	628	475	0	1018	38	11	
9	0	0	0	0	645	476	0	1018	38	11	
10	0	0	0	0	824	485	0	1018	37	11	
